label,class,channel1,channel1,channel1,channel1,channel1,channel1,channel2,channel2,channel2,channel2,channel2,channel2,channel3,channel3,channel3,channel3,channel3,channel3,channel4,channel4,channel4,channel4,channel4,channel4,channel5,channel5,channel5,channel5,channel5,channel5,channel6,channel6,channel6,channel6,channel6,channel6,channel7,channel7,channel7,channel7,channel7,channel7,channel8,channel8,channel8,channel8,channel8,channel8
,,min,max,rms,SSI,abs_diffs_signal,ptp,min,max,rms,SSI,abs_diffs_signal,ptp,min,max,rms,SSI,abs_diffs_signal,ptp,min,max,rms,SSI,abs_diffs_signal,ptp,min,max,rms,SSI,abs_diffs_signal,ptp,min,max,rms,SSI,abs_diffs_signal,ptp,min,max,rms,SSI,abs_diffs_signal,ptp,min,max,rms,SSI,abs_diffs_signal,ptp
1,1,-5e-05,4e-05,1.6706695195082906e-05,2.0406000000000004e-06,0.010700000000000001,9e-05,-0.0001,7e-05,2.7065223630840367e-05,5.355500000000001e-06,0.02031,0.00017,-0.00014,0.00016,3.6757140837450454e-05,9.8778e-06,0.029490000000000002,0.00030000000000000003,-9e-05,9e-05,2.2943675719147195e-05,3.848600000000001e-06,0.0168,0.00018,-5e-05,2e-05,1.6233742643606697e-05,1.9267000000000005e-06,0.010700000000000001,7.000000000000001e-05,-6e-05,5e-05,1.5325760977129865e-05,1.7172000000000003e-06,0.00859,0.00011,-4e-05,2e-05,1.3242578563843391e-05,1.2821000000000004e-06,0.0087,6.000000000000001e-05,-5e-05,2e-05,1.384746021074137e-05,1.4019000000000003e-06,0.00921,7.000000000000001e-05
1,2,-0.00111,0.00095,0.00021020151114230858,0.00030072089999999996,0.16819,0.00206,-0.00047,0.00041,0.00011680793400689179,9.28617e-05,0.0903,0.0008799999999999999,-0.00067,0.00055,0.0001948817992082651,0.00025848449999999997,0.15709,0.0012200000000000002,-0.00072,0.00044,0.00015257150282213888,0.0001584305,0.11642000000000001,0.00116,-0.00055,0.00051,0.00015214312863147606,0.00015754210000000002,0.11662,0.0010600000000000002,-0.00063,0.00087,0.00018499505596557934,0.0002329229,0.13684,0.0015,-0.00076,0.00077,0.00021616708908292256,0.0003180322,0.16251,0.0015300000000000001,-0.0007,0.00054,0.0001497978361432326,0.0001527225,0.11696000000000001,0.00124
1,3,-0.00087,0.00112,0.0001883151268040265,0.0002599053,0.14544,0.00199,-0.00113,0.00127,0.0002594688730016756,0.0004934183,0.19932,0.0024000000000000002,-0.00027,0.00025,7.338268474221602e-05,3.9466800000000006e-05,0.06148,0.0005200000000000001,-0.0002,0.00026,6.251341785290904e-05,2.86412e-05,0.051919999999999994,0.00046,-0.00055,0.00058,0.00014689690619826192,0.00015815030000000002,0.11603,0.00113,-0.00044,0.00031,9.182969043451771e-05,6.18032e-05,0.07351,0.00075,-0.00035,0.00028,7.751231751727435e-05,4.40338e-05,0.058660000000000004,0.0006299999999999999,-0.00073,0.00051,0.0001611864185853233,0.0001904152,0.11869,0.00124
1,4,-0.0002,0.00016,5.619257522097437e-05,2.15475e-05,0.03609,0.00036,-0.00038,0.00024,8.177839053359421e-05,4.5636900000000003e-05,0.05929,0.00062,-0.00079,0.00044,0.00012476319891317265,0.0001062214,0.08906,0.00123,-0.00077,0.00083,0.00023675763226579575,0.00038251370000000004,0.16572,0.0015999999999999999,-0.00116,0.00115,0.00037262322210330335,0.0009474992,0.24711,0.00231,-0.00095,0.00073,0.00025936687387516166,0.0004590585000000001,0.15944999999999998,0.00168,-0.00047,0.00043,0.00011812413741722182,9.521740000000001e-05,0.07517,0.0009,-0.00032,0.00026,8.305221242252752e-05,4.70697e-05,0.04984,0.00058
1,5,-0.00031,0.00061,6.556673292479306e-05,3.04154e-05,0.04939,0.00092,-0.00066,0.00035,0.00012473446000351097,0.0001100777,0.10169999999999998,0.00101,-0.00073,0.00069,0.0002021011187272652,0.00028897739999999997,0.15913,0.0014199999999999998,-0.00112,0.00119,0.00027888493264016727,0.0005502709,0.22977000000000003,0.00231,-0.00119,0.00127,0.00028189369722841185,0.0005622082,0.23498000000000002,0.0024600000000000004,-0.00052,0.00064,0.00016722947142496774,0.0001978573,0.14068999999999998,0.00116,-0.00025,0.0003,8.359916140719228e-05,4.94459e-05,0.06767999999999999,0.0005499999999999999,-0.0003,0.00045,5.995003809121266e-05,2.5427600000000004e-05,0.046060000000000004,0.00075
1,6,-0.00077,0.00082,0.000195756715302867,0.0002737247,0.16715000000000002,0.0015899999999999998,-0.00064,0.00074,0.00014621406371807122,0.00015270700000000003,0.12028,0.0013800000000000002,-0.00033,0.00023,7.136368925775336e-05,3.63777e-05,0.059000000000000004,0.00056,-0.00029,0.00026,6.35435696533899e-05,2.88419e-05,0.05455,0.0005499999999999999,-0.00059,0.00075,0.00013312844750964776,0.0001265967,0.10701999999999999,0.00134,-0.00065,0.0008,0.00014916957118923572,0.0001589429,0.11613000000000001,0.00145,-0.00069,0.00052,0.00013043224964925292,0.0001215208,0.09995000000000001,0.00121,-0.00102,0.0006,0.00021303977159467928,0.0003241918,0.17321,0.00162
2,1,-7e-05,3e-05,1.6170918323947545e-05,1.8671000000000005e-06,0.012310000000000001,9.999999999999999e-05,-0.0001,6e-05,2.386851236153854e-05,4.0677e-06,0.01978,0.00016,-0.00018,0.00021,4.356520596609596e-05,1.35512e-05,0.0392,0.00039000000000000005,-0.00016,0.00026,4.1868474866838864e-05,1.2516200000000002e-05,0.034460000000000005,0.00042,-0.00034,0.00032,6.889575204510039e-05,3.38909e-05,0.051430000000000003,0.00066,-0.00017,0.00049,3.8485509659890654e-05,1.0575300000000002e-05,0.027790000000000002,0.00066,-6e-05,6e-05,1.7058147383489952e-05,2.0776000000000002e-06,0.013070000000000002,0.00012,-5e-05,4e-05,1.5134781949201315e-05,1.6355000000000005e-06,0.01048,9e-05
2,2,-0.00038,0.00053,4.133542527085617e-05,1.15793e-05,0.02388,0.00091,-0.00021,0.00013,4.251239956607853e-05,1.2248100000000002e-05,0.035320000000000004,0.00034,-0.00055,0.00042,0.0001247081290698466,0.00010539669999999999,0.10343000000000001,0.00097,-0.00052,0.00062,0.0001745419604899316,0.0002064606,0.14315,0.00114,-0.0005,0.00055,0.00011954897780220257,9.685660000000001e-05,0.09657,0.0010500000000000002,-0.00121,0.00105,0.00029706271965161966,0.0005980448999999999,0.24925000000000003,0.00226,-0.0003,0.00038,7.409729236233038e-05,3.72085e-05,0.06467,0.00068,-0.00022,0.00022,4.700346434383e-05,1.4972600000000003e-05,0.03647,0.00044
2,3,-0.00128,0.00127,0.0003873347232317073,0.0010224421,0.33717,0.00255,-0.00068,0.00052,9.977899275624588e-05,6.784910000000001e-05,0.08107,0.0012000000000000001,-0.00022,0.00011,3.86587303482022e-05,1.0185000000000002e-05,0.030610000000000002,0.00033,-0.00017,0.00023,4.611526596423709e-05,1.4492900000000001e-05,0.03769,0.0004,-0.00024,0.00033,7.543836187029071e-05,3.87838e-05,0.06162000000000001,0.00057,-0.00051,0.00041,9.354476802236402e-05,5.96355e-05,0.07761,0.00092,-0.00087,0.00122,0.00026478557611889626,0.0004778092,0.21234,0.00209,-0.00115,0.00101,0.0002373777632687951,0.000384013,0.18226000000000003,0.00216
2,4,-0.00016,0.00018,5.0748941656668245e-05,1.7544000000000003e-05,0.04562,0.00034,-0.00022,0.00027,7.685654785972152e-05,4.0238e-05,0.06878000000000001,0.00049,-0.00058,0.00077,0.00018352213182993646,0.0002294307,0.16242,0.00135,-0.00128,0.00127,0.000580273299551717,0.0022937169,0.5346,0.00255,-0.00108,0.00124,0.00036318274033504824,0.0008985144,0.3247,0.00232,-0.00041,0.00053,0.0001349236425278277,0.0001240083,0.11906,0.00094,-0.00023,0.00036,6.651603897547192e-05,3.01389e-05,0.058170000000000006,0.00059,-0.00014,0.00026,4.87884633032992e-05,1.62147e-05,0.04254,0.00039999999999999996
2,5,-0.00062,0.00052,0.00010748958593827033,7.92143e-05,0.08451000000000002,0.00114,-0.00042,0.0002,6.643323826111233e-05,3.02581e-05,0.0596,0.00062,-0.00095,0.00061,0.00015944322246554945,0.0001742942,0.14458,0.00156,-0.00128,0.00127,0.00045460755383590655,0.0014169159999999998,0.42984,0.00255,-0.00062,0.00074,0.00017546579117873266,0.0002110842,0.15645,0.00136,-0.00034,0.00046,8.984233564535377e-05,5.53392e-05,0.07046000000000001,0.0008,-0.00011,0.00011,3.211909903396832e-05,7.072900000000001e-06,0.027890000000000005,0.00022,-0.00029,0.00024,4.53811808491423e-05,1.4119600000000003e-05,0.03633,0.00053
2,6,-0.00046,0.00024,7.246193829422823e-05,3.87084e-05,0.05525,0.0007,-0.00014,0.00021,4.556616173163912e-05,1.53063e-05,0.040690000000000004,0.00035,-0.00024,0.0003,6.194848909488826e-05,2.82909e-05,0.05568,0.00054,-0.0006,0.001,0.00021390327731377946,0.00033730299999999995,0.20016,0.0015999999999999999,-0.00103,0.00121,0.00029434514899860534,0.0006387032000000001,0.26724,0.00224,-0.00053,0.00052,0.00013276909120328806,0.0001299509,0.1185,0.00105,-0.00095,0.00077,0.000255448017483911,0.0004810502,0.22344,0.00172,-0.00067,0.00094,0.0001447358531017389,0.0001544321,0.12205,0.0016099999999999999
3,1,-8e-05,8e-05,1.829110832616396e-05,2.1556e-06,0.013660000000000002,0.00016,-0.00017,9e-05,3.578415816359676e-05,8.250300000000001e-06,0.02916,0.00026000000000000003,-0.00043,0.00037,0.0001086328055902599,7.60344e-05,0.08969,0.0007999999999999999,-0.00021,0.00011,4.3194459034973186e-05,1.2021100000000003e-05,0.03554,0.00032,-8e-05,5e-05,1.974657065455258e-05,2.5123000000000005e-06,0.014700000000000001,0.00013000000000000002,-7e-05,5e-05,1.773798294937208e-05,2.0272000000000007e-06,0.01279,0.00011999999999999999,-4e-05,4e-05,1.514275799399696e-05,1.4774000000000005e-06,0.010350000000000002,8e-05,-6e-05,4e-05,1.7755911371676682e-05,2.0313000000000004e-06,0.013280000000000002,0.0001
3,2,-0.00098,0.00114,0.00027423952359023146,0.0004738813,0.23756000000000002,0.00212,-0.00096,0.00124,0.00027707380545203327,0.0004837271,0.24268,0.0022,-0.00081,0.00058,0.00018498034313101078,0.00021560590000000002,0.16148,0.00139,-0.00107,0.0011,0.00024456530526937117,0.00037687660000000004,0.21015,0.00217,-0.00074,0.001,0.00024348880004367,0.0003735661,0.21808999999999998,0.00174,-0.00059,0.00076,0.00022084442119212836,0.000307314,0.19186,0.00135,-0.00119,0.00127,0.0003940819750748246,0.0009785491,0.32963,0.0024600000000000004,-0.00058,0.00067,0.00017802568338699432,0.00019969850000000003,0.14568,0.00125
3,3,-0.00128,0.00127,0.00048079870143787913,0.0014993517,0.43419,0.00255,-0.00128,0.00127,0.0005889644769451743,0.0022498582,0.52157,0.00255,-0.00074,0.00063,0.0002150524321325895,0.0002999616,0.19905,0.0013700000000000001,-0.00025,0.00023,7.598809488526653e-05,3.7451400000000005e-05,0.06576000000000001,0.00048,-0.00062,0.00063,0.00017062083946668084,0.00018881699999999998,0.15592,0.00125,-0.0008,0.00093,0.00024785891663039203,0.0003984612,0.22237,0.0017300000000000002,-0.00063,0.00063,0.00016002832774207832,0.0001661004,0.15111,0.00126,-0.00118,0.00098,0.00030348548264213225,0.0005973829,0.26717,0.00216
3,4,-0.00063,0.00074,0.0001013066786529792,6.589900000000001e-05,0.07307,0.0013700000000000001,-0.00042,0.00027,9.57686792822938e-05,5.88911e-05,0.07834,0.0006900000000000001,-0.00077,0.00062,0.0001930656215276414,0.0002393385,0.1522,0.00139,-0.00112,0.00127,0.00040140275371492297,0.0010345783,0.32784,0.0023899999999999998,-0.00128,0.00127,0.0005974552535050772,0.0022919938000000003,0.5019399999999999,0.00255,-0.00128,0.00116,0.00044337805431707506,0.0012622665,0.39188999999999996,0.0024400000000000003,-0.00059,0.00057,0.0001759269397139526,0.0001987318,0.14339000000000002,0.00116,-0.00027,0.00046,9.331727600468424e-05,5.59148e-05,0.07069,0.00073
3,5,-0.00105,0.00112,0.0002681889754205263,0.0004515471999999999,0.20721,0.00217,-0.00128,0.00127,0.0003855010640771138,0.0009329803,0.29766000000000004,0.00255,-0.00071,0.00053,0.0001796617738381094,0.0002026435,0.14807,0.00124,-0.00106,0.0011,0.00026842157766795874,0.0004523308,0.23009000000000002,0.00216,-0.00125,0.00127,0.00046267818778023147,0.0013439384,0.38611,0.00252,-0.00059,0.00088,0.0002225634773128264,0.00031097760000000003,0.18639,0.00147,-0.00033,0.00047,0.00011880819443937647,8.86164e-05,0.09776000000000001,0.0007999999999999999,-0.00037,0.00053,9.970376638911771e-05,6.24086e-05,0.07401,0.0009
3,6,-0.00099,0.00115,0.0003182482398416966,0.0006164019,0.24783,0.00214,-0.00113,0.00099,0.00023560690678571972,0.0003378376,0.15663,0.00212,-0.00109,0.00073,0.0001848926556617305,0.00020805169999999997,0.13861,0.00182,-0.0004,0.00026,9.116536563244348e-05,5.05815e-05,0.07333,0.00066,-0.00108,0.00099,0.00023962689395723227,0.0003494645,0.17836000000000002,0.00207,-0.00128,0.00127,0.0004999348790980792,0.0015211037,0.38882000000000005,0.00255,-0.00087,0.0009,0.0002048043558781352,0.0002552762,0.1519,0.0017699999999999999,-0.00099,0.00106,0.0003371414552204008,0.0006917613,0.26067,0.0020499999999999997
4,1,-8e-05,3e-05,1.6369157349005372e-05,1.7339000000000005e-06,0.01067,0.00011,-9e-05,6e-05,2.360265786300536e-05,3.6049000000000004e-06,0.01749,0.00015000000000000001,-0.00014,7e-05,2.9153566831020652e-05,5.4999e-06,0.02162,0.00020999999999999998,-9e-05,4e-05,2.1383893493530456e-05,2.959e-06,0.015560000000000001,0.00013000000000000002,-7e-05,0.00012,1.9177976345172986e-05,2.3800000000000005e-06,0.012550000000000002,0.00019,-5e-05,3e-05,1.731024459887695e-05,1.9390000000000004e-06,0.011600000000000001,8e-05,-6e-05,4e-05,1.649142924213877e-05,1.7599000000000003e-06,0.011040000000000001,0.0001,-5e-05,3e-05,1.6644862882031274e-05,1.7928000000000004e-06,0.01083,8e-05
4,2,-0.00113,0.00069,0.00017603803772043745,0.000204468,0.11959,0.00182,-0.00032,0.0003,9.571186361479523e-05,6.044270000000001e-05,0.06895000000000001,0.00062,-0.00087,0.00042,0.00020059920846579233,0.0002655038,0.13859,0.00129,-0.00106,0.00106,0.00034230168797359464,0.0007730906,0.24881,0.00212,-0.00034,0.00029,0.00010664643292228238,7.50421e-05,0.0747,0.00063,-0.00062,0.00085,0.0001986409950707651,0.0002603455,0.13988,0.00147,-0.00081,0.00105,0.00026379137526373733,0.00045912769999999995,0.19239,0.0018599999999999999,-0.00044,0.00058,0.000147796588134099,0.0001441256,0.1064,0.00102
4,3,-0.0012,0.00127,0.00040856969139581594,0.0011476382,0.30892,0.00247,-0.0008,0.00091,0.0002238749001319509,0.0003445748,0.18077000000000001,0.0017100000000000001,-0.00087,0.0009,0.0002221027117021629,0.00033914110000000003,0.16483,0.0017699999999999999,-0.00037,0.00042,0.0001076081105425863,7.96091e-05,0.08882,0.00079,-0.00067,0.00086,0.00024462203870089124,0.0004113996,0.18114000000000002,0.0015300000000000001,-0.00056,0.00071,0.00017440892387510665,0.00020912699999999998,0.12802000000000002,0.0012699999999999999,-0.00059,0.00063,0.0001454773209441604,0.00014550010000000002,0.10773999999999999,0.0012200000000000002,-0.00099,0.00103,0.0002596848439586258,0.00046362400000000005,0.187,0.00202
4,4,-0.0007,0.00065,0.00011885102659635892,0.0001016052,0.07809,0.00135,-0.00045,0.00025,9.122160872879025e-05,5.9855700000000004e-05,0.07264999999999999,0.0007,-0.00062,0.00051,0.00014495659642723677,0.0001511423,0.11535,0.00113,-0.00091,0.00127,0.00034902575375318984,0.0008762439000000001,0.28248,0.00218,-0.00128,0.00127,0.0004922531519225105,0.0017429586,0.42639,0.00255,-0.00081,0.00086,0.0002273619098811055,0.0003718309,0.18728,0.00167,-0.00025,0.00024,7.837250416534977e-05,4.4181199999999996e-05,0.06470000000000001,0.00049,-0.00043,0.00036,7.519944286644662e-05,4.06761e-05,0.05547,0.00079
4,5,-0.00128,0.00127,0.00036526277313642395,0.0009903536,0.27525,0.00255,-0.00065,0.0003,0.00011836900725251889,0.0001040053,0.09657,0.0009499999999999999,-0.00109,0.0007,0.0002213099221412155,0.0003635643,0.17665,0.00179,-0.00121,0.0012,0.0003749809281602205,0.0010437532,0.3158,0.00241,-0.00119,0.00127,0.0004376105930156358,0.001421527,0.37471,0.0024600000000000004,-0.0004,0.00034,8.102153263903869e-05,4.87282e-05,0.06856000000000001,0.00074,-0.00016,0.00018,4.958849931635784e-05,1.8253300000000004e-05,0.04159,0.00034,-0.00074,0.00038,0.00010822593010296733,8.69445e-05,0.08789,0.00112
4,6,-0.001,0.00109,0.0003224689193798475,0.0007341426,0.23724,0.00209,-0.00067,0.00042,0.00011739391570588001,9.72962e-05,0.08853,0.00109,-0.00035,0.00034,7.389823413653856e-05,3.85543e-05,0.05615,0.0006900000000000001,-0.00038,0.00031,0.0001001112695402057,7.07572e-05,0.07812000000000001,0.0006900000000000001,-0.00104,0.00109,0.00028578902755696083,0.0005766280999999999,0.21900000000000003,0.00213,-0.0009,0.00094,0.00026318796264783727,0.0004890313999999999,0.19414,0.00184,-0.00058,0.00057,0.0001540840615281066,0.0001676178,0.11679,0.00115,-0.00098,0.0009,0.00021428268242830217,0.0003241745,0.16481,0.00188
5,1,-6e-05,0.00012,1.456828267604382e-05,1.3808000000000004e-06,0.00964,0.00018,-7e-05,9e-05,2.1959076601465708e-05,3.1372000000000002e-06,0.017280000000000004,0.00015999999999999999,-0.00012,7e-05,2.8641492197773193e-05,5.3371e-06,0.02393,0.00019,-0.00011,9e-05,2.8206726648445612e-05,5.1763e-06,0.022380000000000004,0.0002,-6e-05,5e-05,1.7416526138229827e-05,1.9735000000000002e-06,0.01105,0.00011,-5e-05,5e-05,1.5136432515695007e-05,1.4906000000000002e-06,0.00912,0.0001,-4e-05,3e-05,1.3014688195367177e-05,1.1020000000000002e-06,0.007400000000000001,7.000000000000001e-05,-5e-05,2e-05,1.4176330164036548e-05,1.3075000000000002e-06,0.008190000000000001,7.000000000000001e-05
5,2,-0.00046,0.00053,0.00010568049085577016,7.60119e-05,0.09142,0.00099,-0.00017,0.00011,3.7646374138128077e-05,9.645800000000002e-06,0.032060000000000005,0.00028000000000000003,-0.0003,0.00024,7.387375559756489e-05,3.7142600000000006e-05,0.06205,0.00054,-0.00074,0.00065,0.0001903732588016628,0.0002466629,0.1474,0.00139,-0.00033,0.00045,8.171887980080136e-05,4.54503e-05,0.06212,0.00078,-0.00037,0.00055,8.329339820856605e-05,4.7218599999999995e-05,0.06453,0.00092,-0.00073,0.00089,0.00014950299678469708,0.0001521219,0.1194,0.00162,-0.00028,0.00029,7.915250477802896e-05,4.26404e-05,0.06946,0.00057
5,3,-0.00057,0.00051,0.00010892216673196334,8.155340000000001e-05,0.08521000000000001,0.00108,-0.00093,0.00064,0.0001385100377225393,0.0001318779,0.09777,0.0015700000000000002,-0.00015,9e-05,3.555209023620139e-05,8.6884e-06,0.029830000000000002,0.00023999999999999998,-0.0001,7e-05,2.8172181435030683e-05,5.455700000000001e-06,0.02341,0.00017,-0.00016,0.00034,4.193633036497912e-05,1.2088999999999999e-05,0.032170000000000004,0.0005,-0.00023,0.00033,5.9789418065879e-05,2.4573000000000003e-05,0.05027,0.00056,-0.00038,0.00055,0.00010401875348474474,7.437600000000001e-05,0.08958,0.00093,-0.00068,0.00053,0.00014830778570835935,0.000151195,0.12546000000000002,0.0012100000000000001
5,4,-0.00052,0.00029,5.198155532486175e-05,1.8168799999999998e-05,0.03587,0.00081,-0.00027,0.00022,5.648856311888438e-05,2.1456000000000003e-05,0.04729,0.00049,-0.00033,0.00024,7.446757276303724e-05,3.72874e-05,0.06339,0.00057,-0.00114,0.00084,0.0002238377676409533,0.0003368949,0.18308000000000002,0.00198,-0.00128,0.0012,0.0004340173314758497,0.0012666069,0.36925,0.00248,-0.00128,0.00126,0.00035338610196394783,0.0008397048,0.28776999999999997,0.00254,-0.00071,0.00051,0.00010936984882065351,8.04309e-05,0.08395,0.0012200000000000002,-0.00076,0.00055,8.171341440664303e-05,4.489670000000001e-05,0.05748,0.00131
5,5,-0.00011,0.00011,2.746057730642173e-05,4.5984e-06,0.01905,0.00022,-0.00016,0.00013,4.0103997309455565e-05,9.8076e-06,0.03139,0.00029,-0.00052,0.00023,8.35706907214187e-05,4.258880000000001e-05,0.06183,0.00075,-0.00064,0.00063,0.0001458722534705218,0.00012975760000000003,0.10681,0.00127,-0.00089,0.00076,0.00024185871477800744,0.00035670639999999996,0.17861,0.00165,-0.00022,0.00016,5.8288562994180763e-05,2.07183e-05,0.04192,0.00038,-0.00011,8e-05,2.8633752247875785e-05,4.999700000000001e-06,0.020020000000000003,0.00019,-8e-05,7e-05,2.1744966205170336e-05,2.8834000000000006e-06,0.01455,0.00015000000000000001
5,6,-0.00071,0.00092,0.00010449720966800821,6.75163e-05,0.06495000000000001,0.00163,-0.00012,0.00014,3.092278551616857e-05,5.912300000000001e-06,0.02279,0.00026,-0.00012,9e-05,3.4657353281855705e-05,7.426600000000001e-06,0.027170000000000003,0.00021,-0.00014,0.00013,4.1942753435424584e-05,1.0877100000000001e-05,0.03168,0.00026999999999999995,-0.00056,0.00076,0.00015828006714014813,0.0001549001,0.11427000000000001,0.00132,-0.00078,0.00122,0.0002826091438545427,0.0004938233999999999,0.22238,0.002,-0.00075,0.00061,0.00018762059575332544,0.0002176508,0.14021,0.00136,-0.00082,0.001,0.00022900720269029615,0.0003242631,0.16759,0.00182
6,1,-5e-05,3e-05,1.6233800901504044e-05,1.5322000000000003e-06,0.00965,8e-05,-0.00011,6e-05,2.419782873979877e-05,3.4043e-06,0.014549999999999999,0.00017,-0.00011,4e-05,2.1688684533822705e-05,2.7349000000000003e-06,0.01431,0.00015000000000000001,-7e-05,5e-05,2.005153319544709e-05,2.3376000000000003e-06,0.011880000000000002,0.00011999999999999999,-8e-05,9e-05,2.091516436577045e-05,2.5433e-06,0.011980000000000001,0.00017,-5e-05,4e-05,1.6791073356961238e-05,1.6392000000000003e-06,0.00983,9e-05,-5e-05,3e-05,1.6005997328014397e-05,1.4895000000000003e-06,0.00911,8e-05,-5e-05,3e-05,1.438272384140243e-05,1.2027000000000004e-06,0.007890000000000001,8e-05
6,2,-0.00046,0.00038,0.00010282903611309393,6.601230000000001e-05,0.07701,0.00084,-0.00032,0.00031,7.257390031911217e-05,3.28817e-05,0.05657,0.00063,-0.00085,0.00053,0.00018202792716014255,0.0002068566,0.13801,0.00138,-0.00086,0.0003,0.00011966368590952034,8.939600000000001e-05,0.09838,0.00116,-0.00019,0.00032,5.381028723816822e-05,1.80769e-05,0.04228,0.00051,-0.00061,0.00062,0.00016071610132482677,0.00016125459999999999,0.11493,0.00123,-0.00043,0.00046,9.43168019932542e-05,5.553560000000001e-05,0.06731,0.00089,-0.00056,0.00054,0.00012868897448660045,0.00010338940000000001,0.09256,0.0010999999999999998
6,3,-0.00104,0.00097,0.00029351088864463295,0.0005740084,0.22313,0.00201,-0.00055,0.00024,9.887950969027877e-05,6.51452e-05,0.06895,0.00079,-0.00017,0.00019,4.297540909849439e-05,1.2305800000000002e-05,0.03181,0.00036,-0.00018,0.00024,5.29830535377039e-05,1.87044e-05,0.03911,0.00042,-0.00031,0.00041,7.999108835250736e-05,4.2633700000000005e-05,0.061880000000000004,0.0007199999999999999,-0.00038,0.00039,0.0001042452487624205,7.24073e-05,0.081,0.0007700000000000001,-0.00054,0.00053,0.00013638715408971,0.0001239415,0.09988,0.00107,-0.00089,0.00069,0.00021921794196265524,0.00032020050000000004,0.15654,0.0015799999999999998
6,4,-0.00022,0.00022,6.380843320694733e-05,2.72303e-05,0.04745,0.00044,-0.00041,0.00045,0.00010042508336277721,6.74498e-05,0.07732,0.00086,-0.00056,0.00051,0.00015416084195212364,0.0001589441,0.11418,0.00107,-0.00117,0.00127,0.00042882951366977385,0.0012298881000000002,0.32506999999999997,0.0024400000000000003,-0.00103,0.00111,0.0003817537557430439,0.0009746819000000001,0.28838,0.0021400000000000004,-0.00069,0.00064,0.00020239198341869,0.0002739573,0.14165,0.00133,-0.00038,0.00036,9.357140085205644e-05,5.85575e-05,0.068,0.00074,-0.00033,0.0005,9.852508302785402e-05,6.492169999999999e-05,0.07345,0.00083
6,5,-0.00028,0.00024,6.203473567009812e-05,2.72999e-05,0.046810000000000004,0.00052,-0.00069,0.00036,9.820326956844524e-05,6.84137e-05,0.07994,0.00105,-0.00109,0.00083,0.00020061587581911717,0.0002855103,0.14407999999999999,0.00192,-0.00094,0.00109,0.00024289506459548675,0.0004185319,0.19458000000000003,0.00203,-0.0009,0.00074,0.00017825003741580914,0.00022539819999999999,0.14761000000000002,0.00164,-0.00061,0.00056,0.00012196961034288222,0.00010553449999999999,0.09289,0.00117,-0.00021,0.00024,6.367127748035027e-05,2.87593e-05,0.046860000000000006,0.00045,-0.00019,0.00022,5.771577598765678e-05,2.36309e-05,0.042550000000000004,0.00041
6,6,-0.00078,0.00072,0.00013480751941205514,0.0001088385,0.09484999999999999,0.0015,-0.00044,0.00039,7.010320850749786e-05,2.94327e-05,0.04836,0.00083,-0.00018,0.00013,4.3837462964057614e-05,1.1509200000000002e-05,0.03266,0.00031,-0.00021,0.00033,6.546429218674208e-05,2.5666300000000002e-05,0.043300000000000005,0.00054,-0.00069,0.00081,0.00018101779002968198,0.0001962442,0.11384000000000001,0.0015,-0.00054,0.00074,0.00015852656843670567,0.00015050760000000002,0.10088,0.0012799999999999999,-0.0005,0.00064,0.0001356216708430876,0.0001101571,0.09126999999999999,0.00114,-0.00059,0.00065,0.00017756572748485258,0.00018883070000000001,0.12192,0.00124
7,1,-0.00023,0.00016,5.6238251464829305e-05,2.37933e-05,0.04789,0.00039000000000000005,-0.0001,7e-05,2.6122035914816976e-05,5.133400000000001e-06,0.020880000000000003,0.00017,-0.00012,0.00015,3.4426618736504664e-05,8.9162e-06,0.0283,0.00027,-0.00037,0.0005,8.8361997578018e-05,5.873840000000001e-05,0.08228,0.00087,-0.00055,0.00084,0.00015567491870466848,0.0001823175,0.13263000000000003,0.0013900000000000002,-7e-05,6e-05,2.028410467088928e-05,3.0953000000000007e-06,0.01616,0.00013,-4e-05,2e-05,1.4203099451492419e-05,1.5176000000000005e-06,0.010100000000000001,6.000000000000001e-05,-6e-05,4e-05,1.7198051137083117e-05,2.2251e-06,0.01327,0.0001
7,2,-0.00077,0.00082,0.0001879246422215501,0.00027020019999999997,0.16826000000000002,0.0015899999999999998,-0.0003,0.00026,7.678295049936036e-05,4.51074e-05,0.07009000000000001,0.00056,-0.00084,0.00065,0.00016088932363850168,0.00019804900000000003,0.15622,0.00149,-0.0006,0.00056,0.00011568817466655194,0.0001023991,0.11368000000000002,0.00116,-0.00075,0.00081,0.00015796588809319554,0.0001909171,0.13772,0.00156,-0.00067,0.00063,0.00018204102858088237,0.000253546,0.16464,0.0013,-0.00063,0.00047,0.0001502131104960328,0.000172637,0.13373000000000002,0.0011,-0.00128,0.00127,0.0005602841811193681,0.0024017894,0.52625,0.00255
7,3,-0.00089,0.00075,0.00023668532934476813,0.00046961519999999996,0.22576,0.00164,-0.00023,0.00015,5.165344377298061e-05,2.23665e-05,0.0482,0.00038,-0.00015,0.00014,4.183820508800883e-05,1.4673900000000002e-05,0.04155,0.00029,-0.00044,0.00041,0.0001388925799077462,0.0001617177,0.14231,0.0008500000000000001,-0.00128,0.00098,0.00030950285873219366,0.0008030245,0.30671,0.00226,-0.00042,0.00039,0.00010592632579524696,9.40605e-05,0.10454,0.00081,-0.00117,0.00121,0.00024036489617134638,0.00048433019999999995,0.21507,0.00238,-0.00123,0.00113,0.0003433992004290381,0.0009885485999999999,0.35916,0.00236
7,4,-0.00054,0.00031,5.501235177595216e-05,2.70042e-05,0.05145,0.0008500000000000001,-0.00049,0.0003,5.890488898581071e-05,3.0960900000000004e-05,0.06452000000000001,0.0007899999999999999,-0.00069,0.00078,0.00021173670687486715,0.0004000398,0.23839000000000002,0.00147,-0.00128,0.00127,0.0005220082729282094,0.0024314518,0.59292,0.00255,-0.00128,0.00127,0.00045288051633464763,0.0018301141000000001,0.5237,0.00255,-0.00039,0.00055,0.00010508552522488424,9.85364e-05,0.11214,0.0009400000000000001,-0.00034,0.0005,8.20474437908481e-05,6.0067699999999994e-05,0.08182,0.00084,-0.00012,0.00018,3.3874202810522894e-05,1.02388e-05,0.03894,0.00030000000000000003
7,5,-0.00074,0.00081,0.00022884609937664065,0.00044064570000000006,0.22757000000000002,0.00155,-0.00029,0.00024,7.216712307855123e-05,4.38209e-05,0.06960000000000001,0.00053,-0.00055,0.00039,0.0001161397771009282,0.00011349180000000002,0.11437,0.0009400000000000001,-0.00092,0.00085,0.00026213477881215005,0.000578165,0.27588999999999997,0.0017699999999999999,-0.00088,0.00081,0.00019362765465576363,0.00031545490000000004,0.19548000000000001,0.00169,-0.00013,0.00016,3.882897841832477e-05,1.2685700000000001e-05,0.03871,0.00029,-0.00013,0.00016,3.3304281770018794e-05,9.332600000000001e-06,0.0333,0.00029,-0.0009,0.00102,0.00023586828601571363,0.00046810319999999995,0.24452000000000002,0.00192
7,6,-0.00013,0.0001,2.673337345814267e-05,6.507100000000001e-06,0.03158,0.00023,-0.00027,9e-05,3.650235261313012e-05,1.2131700000000001e-05,0.04128999999999999,0.00036,-0.00023,0.00021,6.761245640704767e-05,4.1623e-05,0.08204,0.00044,-0.00106,0.00122,0.00031500482462767796,0.0009034713,0.39827,0.00228,-0.00128,0.00127,0.0005333599629540753,0.0025901253000000005,0.6634800000000001,0.00255,-0.00061,0.00071,0.00017526946383589396,0.0002797,0.21241,0.00132,-0.00068,0.00055,0.00015912083417392076,0.0002305335,0.19528000000000004,0.0012300000000000002,-0.00055,0.00048,7.953344182812702e-05,5.7594300000000005e-05,0.08621000000000001,0.00103
8,1,-6e-05,3e-05,1.4728001844874226e-05,1.4030000000000004e-06,0.009490000000000002,9e-05,-7e-05,4e-05,1.915984256458202e-05,2.3744e-06,0.012580000000000001,0.00010999999999999999,-0.00019,0.0001,3.2073277263314856e-05,6.6536e-06,0.02278,0.00029,-0.0002,0.00014,4.01591222767727e-05,1.04313e-05,0.02989,0.00034,-6e-05,5e-05,1.6956508812094185e-05,1.8597000000000006e-06,0.01093,0.00011,-4e-05,3e-05,1.486280278471056e-05,1.4288000000000004e-06,0.00817,7.000000000000001e-05,-5e-05,2e-05,1.3711963187177541e-05,1.2161000000000003e-06,0.008119999999999999,7.000000000000001e-05,-4e-05,2e-05,1.381027016941161e-05,1.2336000000000001e-06,0.00807,6.000000000000001e-05
8,2,-0.00128,0.00119,0.0003708072221824186,0.0008988244,0.31082,0.00247,-0.00077,0.00063,0.0001746015810362316,0.00019928509999999998,0.12941000000000003,0.0014,-0.00128,0.00127,0.000488128612768853,0.001557568,0.36914,0.00255,-0.00128,0.00127,0.0005590515690669747,0.0020430652000000002,0.44779,0.00255,-0.0011,0.00127,0.0003779050445973677,0.0009335635000000001,0.28738,0.00237,-0.00128,0.00127,0.0005140860262687265,0.0017276274,0.404,0.00255,-0.00128,0.00127,0.0006080651911863164,0.0024170118,0.51138,0.00255,-0.00102,0.00119,0.00031493906498724245,0.0006483829000000001,0.24952999999999997,0.00221
8,3,-0.00116,0.00112,0.00038487166652914265,0.0008797214999999999,0.26037999999999994,0.00228,-0.00064,0.00068,0.0001345494436505194,0.00010751700000000001,0.09353,0.00132,-0.00031,0.00034,9.759388518408392e-05,5.65664e-05,0.07105,0.00065,-0.00061,0.00069,0.0001635555849404513,0.0001588708,0.11431,0.0013,-0.00127,0.00127,0.0004187657559744244,0.0010414913,0.28173,0.00254,-0.00087,0.00121,0.0002793567467442061,0.00046348069999999997,0.19559,0.00208,-0.00106,0.00112,0.0003183138244830812,0.0006017614000000001,0.21341,0.0021799999999999996,-0.00128,0.00127,0.00040925469941274214,0.0009947196,0.29394000000000003,0.00255
8,4,-0.00051,0.00052,0.00013447246509696746,0.0001089853,0.08711,0.00103,-0.00083,0.0006,0.00022831642279201375,0.00031417779999999996,0.15053,0.0014299999999999998,-0.00115,0.00124,0.00037041730018107493,0.0008269585,0.25934999999999997,0.0023899999999999998,-0.00128,0.00127,0.0005906486297982329,0.0021026142,0.41134,0.00255,-0.00128,0.00127,0.0006566581432069453,0.0025988419,0.42684,0.00255,-0.00128,0.00123,0.00045971214689808233,0.0012737176,0.31739,0.00251,-0.00064,0.00078,0.00019718030582391362,0.00023433019999999997,0.1315,0.00142,-0.00041,0.00057,0.00011548162038073683,8.03761e-05,0.07529,0.00098
8,5,-0.00069,0.00051,0.00014212348890695845,0.0001259817,0.09545999999999999,0.0012000000000000001,-0.00091,0.00079,0.00021103028755871492,0.00027775719999999996,0.14967000000000003,0.0017000000000000001,-0.00119,0.00123,0.0003761560556826285,0.0008824942,0.25565000000000004,0.0024200000000000003,-0.00128,0.00127,0.0005456905226818714,0.0018572423000000002,0.39611,0.00255,-0.00128,0.00122,0.0004752733954102632,0.0014088435,0.33011,0.0025,-0.00081,0.00085,0.00024887958006710473,0.0003863263,0.1782,0.00166,-0.00042,0.00041,0.00010492452069220203,6.86641e-05,0.07385,0.00083,-0.00032,0.00024,6.542077763635109e-05,2.6693600000000005e-05,0.044340000000000004,0.0005600000000000001
8,6,-0.00081,0.00054,0.00015770630477890423,0.0001610664,0.11263000000000001,0.00135,-0.00036,0.00027,7.495314575159951e-05,3.6382e-05,0.05507,0.00063,-0.00034,0.00033,9.0486383893749e-05,5.30241e-05,0.06786,0.00067,-0.00074,0.00096,0.0002076793151994289,0.0002793144,0.14589,0.0017000000000000001,-0.00128,0.00127,0.0005001482485597322,0.0016199602,0.3373,0.00255,-0.00128,0.0012,0.00043289059952259727,0.0012135652999999999,0.31914,0.00248,-0.00094,0.00103,0.0003135911955470748,0.0006368462,0.22936,0.00197,-0.00128,0.00104,0.00041397331271982415,0.0011098174,0.30505000000000004,0.00232
9,1,-5e-05,3e-05,1.5195558027395659e-05,1.6355000000000005e-06,0.0103,8e-05,-0.00012,9e-05,3.2981198037259756e-05,7.7046e-06,0.027110000000000002,0.00021,-0.00012,8e-05,3.4018166244201794e-05,8.196700000000002e-06,0.03019,0.0002,-0.00012,9e-05,2.9694667196622973e-05,6.2456e-06,0.023940000000000003,0.00021,-7e-05,9e-05,2.029118815680517e-05,2.9163000000000004e-06,0.0157,0.00015999999999999999,-8e-05,0.00013,2.1824515421583255e-05,3.3737000000000004e-06,0.01543,0.00021,-4e-05,3e-05,1.4626991888715797e-05,1.5154000000000003e-06,0.00969,7.000000000000001e-05,-0.0001,0.00013,1.682642617483918e-05,2.0054000000000003e-06,0.01081,0.00023
9,2,-0.00119,0.00109,0.00028351958083419035,0.00048382739999999996,0.21892,0.00228,-0.0002,0.00026,6.111482986129437e-05,2.2481100000000004e-05,0.044789999999999996,0.00046,-0.00024,0.00019,6.099291955018305e-05,2.23915e-05,0.04847,0.00043000000000000004,-0.00058,0.00073,0.00017219028216280927,0.00017846030000000002,0.12519,0.00131,-0.00041,0.00053,0.00012146500100651662,8.880280000000001e-05,0.09184,0.00094,-0.00054,0.00058,0.00012801408482898859,9.8637e-05,0.09886,0.00112,-0.00097,0.00094,0.00023148185919864579,0.0003225212,0.16993,0.00191,-0.00051,0.00061,0.00011803754742352508,8.386190000000001e-05,0.09064,0.00112
9,3,-0.00096,0.00091,0.0002832928048719583,0.0004685276,0.18763,0.0018700000000000001,-0.00107,0.00085,0.0002984424854053018,0.0005199785,0.19633,0.0019199999999999998,-0.00024,0.00017,6.0436490409959104e-05,2.13237e-05,0.0395,0.00041,-0.00015,0.00014,4.182358256921919e-05,1.02119e-05,0.027760000000000003,0.00029,-0.00022,0.00023,5.247603410636815e-05,1.60763e-05,0.033490000000000006,0.00045,-0.00033,0.00029,7.278886293934564e-05,3.093099999999999e-05,0.046369999999999995,0.00062,-0.0005,0.00061,0.0001414552661661601,0.000116816,0.09022,0.0011099999999999999,-0.00121,0.00127,0.0004215412429730152,0.0010373952,0.27879,0.00248
9,4,-0.00024,0.00023,6.12937615729065e-05,2.1700000000000002e-05,0.04019,0.00047000000000000004,-0.00029,0.00029,8.193777197638673e-05,3.87789e-05,0.05348000000000001,0.00058,-0.00037,0.00039,0.00011477508717974995,7.60891e-05,0.07989,0.00076,-0.00116,0.00123,0.0003386592637931342,0.00066245,0.22073999999999996,0.0023899999999999998,-0.00128,0.00127,0.0005170757156416982,0.0015443135,0.37623000000000006,0.00255,-0.00122,0.00121,0.0003368995890506477,0.0006555837,0.2292,0.00243,-0.00055,0.00037,0.0001132223653551733,7.40443e-05,0.07497000000000001,0.00092,-0.00035,0.00041,8.22616804595075e-05,3.90861e-05,0.055260000000000004,0.00076
9,5,-0.00066,0.00063,0.00013600923643890595,0.000111916,0.09237000000000001,0.00129,-0.00052,0.00029,8.946794060832224e-05,4.84273e-05,0.05979,0.00081,-0.00024,0.00022,7.109416407335654e-05,3.0579e-05,0.053000000000000005,0.00046,-0.00078,0.00079,0.0001906362119043908,0.00021987009999999997,0.12847,0.00157,-0.00082,0.00074,0.00024291055388780828,0.0003569835,0.17961,0.00156,-0.00037,0.00031,8.935804107147992e-05,4.83084e-05,0.0626,0.00068,-0.00013,0.00013,3.856560365304846e-05,8.998200000000001e-06,0.02653,0.00026,-0.00023,0.00026,4.908905720412796e-05,1.45789e-05,0.02987,0.00049
9,6,-0.00055,0.00064,0.00013091713273714412,0.00011095980000000001,0.09494,0.00119,-0.00028,0.00053,6.351679847568357e-05,2.6118600000000004e-05,0.049,0.00081,-0.00015,0.00013,4.353331862022082e-05,1.2269200000000001e-05,0.03472,0.00028,-0.00019,0.00027,6.224794711464557e-05,2.5085500000000002e-05,0.04916000000000001,0.00046,-0.0006,0.00086,0.00017268205393619135,0.0001930488,0.14018,0.00146,-0.00113,0.00124,0.00040003782258623107,0.0010360359,0.33099,0.0023699999999999997,-0.00053,0.0006,0.00014806208777074647,0.0001419255,0.11207,0.00113,-0.00128,0.00127,0.0003860399136774801,0.0009647996000000001,0.29669,0.00255
10,1,-9e-05,4e-05,1.7910701772163567e-05,2.4669e-06,0.0157,0.00013000000000000002,-0.00013,7e-05,2.7822818562644952e-05,5.9529e-06,0.026240000000000003,0.00019999999999999998,-0.00019,8e-05,3.575709119701012e-05,9.8322e-06,0.03659,0.00027,-0.00036,0.00077,6.039305586206887e-05,2.80479e-05,0.05425000000000001,0.00113,-0.00015,0.00026,3.3699120006415175e-05,8.733000000000001e-06,0.02826,0.00041,-5e-05,6e-05,1.71575731003659e-05,2.2638000000000002e-06,0.013330000000000002,0.00011,-4e-05,3e-05,1.3693657468933226e-05,1.4420000000000003e-06,0.010320000000000001,7.000000000000001e-05,-5e-05,3e-05,1.4551822107832629e-05,1.6284000000000004e-06,0.01175,8e-05
10,2,-0.00088,0.00097,0.00020945955923471317,0.0002882915,0.19162,0.00185,-0.00024,0.00023,6.681494442152924e-05,2.9334500000000002e-05,0.06061,0.00047000000000000004,-0.00035,0.00027,9.48097599396837e-05,5.9066e-05,0.08714,0.00062,-0.00125,0.00127,0.00039830973724139793,0.0010424934,0.36877,0.00252,-0.00063,0.00071,0.0001801757288267645,0.00021331629999999998,0.1609,0.00134,-0.00128,0.00123,0.0003585419797461634,0.0008447175,0.32319000000000003,0.00251,-0.00128,0.00127,0.0005364123680342606,0.0018907279,0.49924,0.00255,-0.00078,0.00093,0.0001810375665916476,0.0002153619,0.17720000000000002,0.0017100000000000001
10,3,-0.00089,0.00107,0.00017544141713937792,0.00020111449999999997,0.12911,0.00196,-0.00032,0.00028,5.010823913307508e-05,1.6405799999999998e-05,0.03628,0.0006000000000000001,-0.00029,0.00014,4.521604093821909e-05,1.33587e-05,0.037989999999999996,0.00043,-0.0005,0.00073,0.00010763641766765236,7.57003e-05,0.08422,0.00123,-0.00051,0.00076,0.00016265940122870513,0.0001728771,0.14042,0.00127,-0.00105,0.00088,0.000257242357013404,0.00043237850000000003,0.23218,0.0019299999999999999,-0.00039,0.00065,9.709217328525432e-05,6.15953e-05,0.08193,0.00104,-0.00068,0.00034,5.749156523753654e-05,2.1596700000000003e-05,0.04802,0.00102
10,4,-0.00023,0.00027,7.248329437426378e-05,3.5547400000000005e-05,0.06866,0.0005,-0.00041,0.00054,0.00011671386092724783,9.216730000000001e-05,0.11074,0.00095,-0.00061,0.00086,0.00020215503163037744,0.00027650380000000005,0.18901,0.00147,-0.00128,0.00125,0.0004804924529476371,0.0015620867,0.44267,0.00253,-0.00128,0.00127,0.0006426881774299451,0.0027946834,0.5992,0.00255,-0.00124,0.00127,0.00046712268866608406,0.0014763656,0.43629999999999997,0.00251,-0.00049,0.00062,0.00016604656046539606,0.0001865485,0.15800000000000003,0.0011099999999999999,-0.00086,0.00106,0.00013059087166091942,0.0001153872,0.10596,0.0019199999999999998
10,5,-0.00109,0.00084,0.00019724411731242736,0.0002590311,0.15155000000000002,0.00193,-0.00039,0.00027,7.717858183163033e-05,3.96586e-05,0.0638,0.00066,-0.00044,0.00046,0.00012770338915738682,0.0001085797,0.1031,0.0009,-0.00111,0.00117,0.00034723974869821486,0.0008027913000000001,0.28986999999999996,0.00228,-0.00124,0.00117,0.00037949637382598357,0.0009588685,0.29291,0.00241,-0.00044,0.00064,0.0001283063766309741,0.0001096075,0.10253999999999999,0.00108,-0.00017,0.00015,4.934323846016091e-05,1.62106e-05,0.0391,0.00031999999999999997,-0.00026,0.00014,5.226170367843759e-05,1.8184900000000003e-05,0.04007000000000001,0.00039999999999999996
10,6,-0.00041,0.00015,3.889999274178529e-05,1.0584900000000001e-05,0.03364,0.00056,-0.00014,9e-05,3.3361579645245974e-05,7.7854e-06,0.031030000000000005,0.00023,-0.0002,0.00012,4.338599465044517e-05,1.3167000000000001e-05,0.04062,0.00032,-0.00043,0.00035,8.61239029648638e-05,5.18842e-05,0.07546000000000001,0.00078,-0.00085,0.00095,0.00026627394837376925,0.0004959582,0.23332,0.0018,-0.00099,0.00106,0.00030252360064836407,0.0006401861,0.2692,0.0020499999999999997,-0.00042,0.00039,0.00010309069409022977,7.43407e-05,0.0947,0.00081,-0.00089,0.00105,0.0002652792236042082,0.0004922596,0.21617000000000003,0.0019399999999999999
11,1,-5e-05,3e-05,1.3171164504788363e-05,1.3207000000000003e-06,0.01008,8e-05,-7e-05,4e-05,1.794806934525579e-05,2.4524000000000004e-06,0.014660000000000001,0.00010999999999999999,-0.00017,8e-05,3.300466274690518e-05,8.2929e-06,0.030850000000000002,0.00025,-0.00031,0.00025,7.04437903404593e-05,3.7778200000000004e-05,0.06548000000000001,0.00056,-0.00062,0.00049,0.00011431053637291209,9.94783e-05,0.09258,0.0011099999999999999,-7e-05,9e-05,1.8698630318240998e-05,2.6618000000000005e-06,0.015210000000000001,0.00015999999999999999,-5e-05,2e-05,1.419266576301533e-05,1.5335000000000002e-06,0.01031,7.000000000000001e-05,-4e-05,3e-05,1.363376018518302e-05,1.4151000000000004e-06,0.009430000000000001,7.000000000000001e-05
11,2,-0.00128,0.00127,0.00044364600661257487,0.0014314848,0.37171000000000004,0.00255,-0.00036,0.00021,7.633283368704293e-05,4.23776e-05,0.06691,0.00057,-0.00091,0.0009,0.00018612130038581797,0.00025194499999999995,0.16576999999999997,0.00181,-0.00128,0.00127,0.0005164384132461453,0.0019397719,0.45087,0.00255,-0.00128,0.00127,0.00036820464377878605,0.0009860345,0.32363,0.00255,-0.00082,0.00114,0.00027417403427833627,0.0005467216,0.24092999999999998,0.00196,-0.00128,0.00127,0.0004719085902858659,0.0016196805,0.45030000000000003,0.00255,-0.00059,0.00067,0.00017156729342999405,0.0002140832,0.16072999999999998,0.00126
11,3,-0.00125,0.00119,0.00030805264670040114,0.0006677862,0.25634999999999997,0.0024400000000000003,-0.00128,0.00127,0.0004426969325715821,0.0013791152999999999,0.37573,0.00255,-0.0004,0.00027,8.840662382099542e-05,5.49993e-05,0.06983,0.00067,-0.0002,0.00026,6.475552783875503e-05,2.9508100000000003e-05,0.05797,0.00046,-0.00104,0.00112,0.00035136682704941483,0.0008687785,0.30843,0.0021599999999999996,-0.00128,0.00127,0.00046136937742985435,0.0014979078,0.39726000000000006,0.00255,-0.00084,0.00091,0.00019644586090904398,0.0002715647,0.16346,0.00175,-0.00128,0.00127,0.0005606049053330489,0.0022115733,0.46684000000000003,0.00255
11,4,-0.00034,0.00029,7.33582809055443e-05,3.84127e-05,0.07014999999999999,0.00063,-0.00041,0.00046,8.392956592873053e-05,5.0281299999999996e-05,0.08032,0.00087,-0.001,0.00105,0.0001975163452489816,0.00027847269999999995,0.18978,0.0020499999999999997,-0.00128,0.00127,0.0005148277560315735,0.0018919099,0.51411,0.00255,-0.00128,0.00127,0.000700383585811192,0.0035014543000000003,0.66995,0.00255,-0.00128,0.00127,0.0004990143970373513,0.0017774717,0.46138999999999997,0.00255,-0.00038,0.00049,0.0001250352149891845,0.0001115941,0.11381,0.00087,-0.00023,0.00025,7.05040293624868e-05,3.54817e-05,0.06444000000000001,0.00048
11,5,-0.00107,0.001,0.00029066928537608904,0.0005953913999999999,0.23565999999999998,0.00207,-0.00128,0.00127,0.0005271427382024925,0.0019582166000000002,0.45477,0.00255,-0.00092,0.00072,0.00018944142010971505,0.0002529031,0.15924,0.00164,-0.00128,0.00127,0.000449430682229973,0.001423409,0.39138,0.00255,-0.00128,0.00127,0.000497429564280673,0.0017436827000000001,0.43798000000000004,0.00255,-0.00073,0.00108,0.00020274657294145224,0.0002896752,0.17634,0.00181,-0.00029,0.00035,8.867390989469439e-05,5.5411e-05,0.07857,0.0006399999999999999,-0.00029,0.00021,6.132749338254744e-05,2.6504200000000003e-05,0.05292,0.0005
11,6,-0.00051,0.00056,0.00010881332311989671,7.88685e-05,0.08608,0.00107,-0.00023,0.00018,5.30953034133708e-05,1.8778100000000002e-05,0.04846,0.00041,-0.00021,0.00026,6.255914481200747e-05,2.6068799999999997e-05,0.05745,0.00047,-0.00035,0.00046,0.00010538745436819029,7.39805e-05,0.0927,0.00081,-0.00128,0.00127,0.00047229395755715123,0.0014858132,0.40498,0.00255,-0.00128,0.00127,0.0006523416644674143,0.0028345862,0.5611900000000001,0.00255,-0.00101,0.00085,0.0002581106214958775,0.00044376309999999994,0.21851,0.00186,-0.00128,0.00127,0.0005219011100326944,0.0018143283,0.43262,0.00255
12,1,-4e-05,3e-05,1.3904991550894134e-05,1.3343000000000005e-06,0.00884,7.000000000000001e-05,-5e-05,4e-05,1.576756615930428e-05,1.7157000000000004e-06,0.01059,9e-05,-7e-05,5e-05,1.996083689174675e-05,2.7496000000000007e-06,0.013250000000000001,0.00011999999999999999,-0.00018,0.00013,2.99385933871946e-05,6.1855e-06,0.01978,0.00031,-5e-05,0.00014,1.8325021278810296e-05,2.3174e-06,0.01282,0.00018999999999999998,-4e-05,3e-05,1.4305645731061843e-05,1.4123000000000004e-06,0.00935,7.000000000000001e-05,-4e-05,3e-05,1.3155849107682185e-05,1.1944000000000004e-06,0.008110000000000001,7.000000000000001e-05,-4e-05,2e-05,1.3395438128075604e-05,1.2383000000000005e-06,0.00803,6.000000000000001e-05
12,2,-0.00025,0.00021,6.552664317357517e-05,2.97041e-05,0.055580000000000004,0.00046,-0.00048,0.00032,9.709676923629327e-05,6.52214e-05,0.08445,0.0008,-0.00044,0.00036,9.319014436435547e-05,6.0078700000000005e-05,0.08166999999999999,0.0008,-0.00105,0.00092,0.0002721543350302242,0.0005124023,0.23337000000000002,0.00197,-0.00039,0.0003,9.893667102870034e-05,6.77166e-05,0.08612,0.00069,-0.00016,0.00015,5.114587519333043e-05,1.80968e-05,0.04309,0.00031,-0.00056,0.00073,0.00017359159435447618,0.0002084673,0.1513,0.00129,-0.00031,0.00021,6.834875618336249e-05,3.2317800000000004e-05,0.05346,0.0005200000000000001
12,3,-0.00069,0.00061,0.00017168952360877224,0.00021665809999999998,0.13502000000000003,0.0013,-0.00048,0.00024,8.952748219416903e-05,5.89115e-05,0.07441,0.00072,-0.00011,9e-05,3.397478056273185e-05,8.484e-06,0.02859,0.0002,-0.0001,0.00012,3.252398382439608e-05,7.774899999999999e-06,0.027530000000000002,0.00022,-0.00032,0.00054,8.900408918221957e-05,5.82247e-05,0.07427,0.0008600000000000001,-0.00036,0.00048,0.0001128305574473395,9.357090000000001e-05,0.09567,0.00084,-0.0009,0.00061,0.00015379812724990603,0.0001738559,0.12534,0.00151,-0.00085,0.00079,0.0002543141236136632,0.0004753662,0.20126,0.00164
12,4,-0.00028,0.00047,7.071526703612976e-05,3.62147e-05,0.05902,0.00075,-0.0003,0.00025,6.415178510942474e-05,2.9804099999999998e-05,0.049370000000000004,0.0005499999999999999,-0.00048,0.00028,0.00011018362319426284,8.7921e-05,0.08839,0.00076,-0.00085,0.00104,0.0002719010066459454,0.0005354022,0.23318,0.0018899999999999998,-0.00128,0.00127,0.0004847418790576537,0.0017016866999999998,0.42779,0.00255,-0.00128,0.00123,0.00041360792230575886,0.0012388999,0.35192,0.00251,-0.00071,0.00075,0.00015372849312849613,0.0001711462,0.12238,0.00146,-0.0004,0.00047,8.503390489710143e-05,5.2365200000000005e-05,0.07042,0.00087
12,5,-0.0006,0.00034,0.00010159940051941357,7.80686e-05,0.07827,0.00094,-0.00112,0.00103,0.0002020301562983649,0.0003086928,0.14643,0.00215,-0.00055,0.0004,0.0001277807709572068,0.0001234881,0.10303,0.0009500000000000001,-0.00102,0.00083,0.0002611665618462236,0.0005158569,0.22129,0.00185,-0.00128,0.00127,0.000371584636576059,0.0010442623,0.30032000000000003,0.00255,-0.00059,0.00063,0.000187072833079449,0.0002646766,0.1643,0.0012200000000000002,-0.00022,0.00032,6.836853258276738e-05,3.535140000000001e-05,0.061520000000000005,0.00054,-0.00018,0.00014,4.4124282063493106e-05,1.4724800000000002e-05,0.0402,0.00031999999999999997
12,6,-0.00036,0.00054,0.0001334673571856341,0.0001339756,0.10439000000000001,0.0009,-9e-05,6e-05,2.5746403184869643e-05,4.985500000000001e-06,0.020300000000000002,0.00015000000000000001,-0.0001,9e-05,2.778533780028612e-05,5.806400000000001e-06,0.021560000000000003,0.00019,-0.00016,0.00023,4.8025638014100585e-05,1.73469e-05,0.04127,0.00039000000000000005,-0.0004,0.00063,0.00014074799703864298,0.000148991,0.11999,0.00103,-0.00088,0.00094,0.00028252974258430525,0.0006003492000000001,0.24425999999999998,0.00182,-0.0005,0.0003,9.360086640196216e-05,6.58924e-05,0.07716,0.0007999999999999999,-0.00064,0.00052,0.00014364525140161355,0.000155188,0.12129999999999999,0.00116
13,1,-8e-05,4e-05,1.5030675546017653e-05,2.3053000000000006e-06,0.016980000000000002,0.00012000000000000002,-9e-05,5e-05,2.2480227821024285e-05,5.156699999999999e-06,0.028679999999999997,0.00014000000000000001,-0.00021,0.00013,4.395203811262078e-05,1.97119e-05,0.05875000000000001,0.00034,-0.00023,0.00025,7.024345857905701e-05,5.0348e-05,0.09562000000000001,0.00048,-0.00038,0.00053,0.00010050855593310548,0.0001030805,0.14061,0.00091,-7e-05,8e-05,2.054886804784652e-05,4.3087e-06,0.025410000000000005,0.00015000000000000001,-5e-05,3e-05,1.3854044011633959e-05,1.958500000000001e-06,0.014650000000000002,8e-05,-7e-05,4e-05,1.4196774717776614e-05,2.0566000000000004e-06,0.014310000000000002,0.00010999999999999999
13,2,-0.00096,0.00085,0.0002086948264031301,0.00037686869999999995,0.24884,0.00181,-0.00045,0.00032,0.00010411358908140139,9.37954e-05,0.11083000000000001,0.0007700000000000001,-0.00128,0.00096,0.0003248133103533301,0.0009129234000000001,0.33768,0.0022400000000000002,-0.00123,0.00127,0.00039254436467584463,0.0013333500999999999,0.4309,0.0025,-0.0007,0.00097,0.00023725572875582233,0.00048707979999999996,0.26157,0.00167,-0.00127,0.00127,0.0004225191766535685,0.0015447547999999998,0.47599,0.00254,-0.00088,0.00115,0.0003203921453107739,0.0008882402000000001,0.3648,0.00203,-0.00128,0.00127,0.0004347517227584774,0.0016354954000000002,0.53313,0.00255
13,3,-0.00116,0.00117,0.0003412374050897605,0.0012458233,0.48065,0.00233,-0.00033,0.00022,6.272453824394101e-05,4.209380000000001e-05,0.08762,0.00055,-0.00018,0.00021,5.6214259709369584e-05,3.38093e-05,0.08014,0.00039000000000000005,-0.00069,0.00078,0.0002011603409109166,0.0004329402,0.28615,0.00147,-0.00108,0.00119,0.0003655898902424151,0.0014299852000000002,0.50973,0.0022700000000000003,-0.00059,0.00078,0.00014750290892368115,0.0002327793,0.20771,0.0013700000000000001,-0.0008,0.00085,0.00021591113558363248,0.0004987619,0.28702,0.00165,-0.00128,0.00127,0.00040281054152977336,0.0017359805,0.56304,0.00255
13,4,-0.0002,0.0002,5.867061165073649e-05,3.77304e-05,0.07554,0.0004,-0.0003,0.00031,9.200198131168979e-05,9.27779e-05,0.12142000000000001,0.00061,-0.00073,0.00066,0.00018472112984827842,0.00037401009999999996,0.24405,0.00139,-0.00127,0.00127,0.00042303025135205307,0.0019615213,0.5797300000000001,0.00254,-0.00128,0.00127,0.0005546739224946405,0.0033722959,0.74076,0.00255,-0.00117,0.00127,0.0003644514520074766,0.0014558932999999999,0.50305,0.0024400000000000003,-0.0003,0.00033,0.00010475032331438182,0.000120271,0.13887,0.0006299999999999999,-0.00018,0.00024,5.868079598897638e-05,3.77435e-05,0.07574,0.00042
13,5,-0.00087,0.00067,0.00016637804452006706,0.0002952802,0.22106000000000003,0.0015400000000000001,-0.00062,0.00065,0.0001617472795190054,0.000279072,0.21759,0.0012699999999999999,-0.00126,0.00127,0.0003271600270852042,0.0011417283,0.44994999999999996,0.00253,-0.00128,0.00127,0.0005180239874739196,0.0028624772,0.70166,0.00255,-0.00128,0.00127,0.00034749464238107076,0.0012880672000000002,0.47431,0.00255,-0.00043,0.00067,0.00011763979196037303,0.0001476219,0.15805000000000002,0.0011,-0.0002,0.0003,6.3523166248461e-05,4.30434e-05,0.08670000000000001,0.0005,-0.00028,0.00031,7.033528029826623e-05,5.2770200000000005e-05,0.09506,0.00059
13,6,-0.00087,0.00083,0.00019224852373779375,0.0004258473,0.27208,0.0017000000000000001,-0.00015,0.00015,4.462655317626927e-05,2.29464e-05,0.06544,0.0003,-0.0002,0.00033,5.6991032466828044e-05,3.7423200000000004e-05,0.08245000000000001,0.00053,-0.00098,0.00087,0.00022021304639160985,0.0005587454,0.32584,0.00185,-0.00128,0.00127,0.00043750766601263167,0.0022054601,0.6508,0.00255,-0.00109,0.00097,0.00029494124875763413,0.0010023026999999999,0.41899000000000003,0.00206,-0.00096,0.00108,0.0001943479477759389,0.0004351989,0.28043,0.00204,-0.00093,0.00086,0.000259862183574971,0.0007780616999999999,0.37085,0.00179
14,1,-5e-05,3e-05,1.4067197907597702e-05,1.3199000000000003e-06,0.008900000000000002,8e-05,-8e-05,8e-05,2.001611045286136e-05,2.6723000000000002e-06,0.01409,0.00016,-0.00026,0.00019,5.564047150200643e-05,2.06494e-05,0.04851,0.00045,-0.00017,0.00012,4.020710999503629e-05,1.0782800000000001e-05,0.03393,0.00029,-0.00012,0.0002,2.8332995265055614e-05,5.354400000000001e-06,0.021970000000000003,0.00032,-0.00036,0.00054,6.877619441013897e-05,3.155020000000001e-05,0.04274,0.0009,-8e-05,5e-05,1.6442622056410637e-05,1.8033000000000002e-06,0.01182,0.00013000000000000002,-4e-05,2e-05,1.4240912828920341e-05,1.3527000000000004e-06,0.00928,6.000000000000001e-05
14,2,-0.00036,0.00071,0.00010108215060118599,6.28689e-05,0.07121,0.00107,-0.00014,0.00013,3.7914082517942766e-05,8.8448e-06,0.02646,0.00026999999999999995,-0.00041,0.00025,7.730182980546196e-05,3.6767700000000004e-05,0.059559999999999995,0.00066,-0.00119,0.00117,0.000329364146655188,0.0006674820000000001,0.24516,0.00236,-0.00089,0.00033,8.700788571258475e-05,4.6580500000000006e-05,0.03663,0.00122,-0.00057,0.00037,0.00010084777966205424,6.25777e-05,0.0693,0.00094,-0.00052,0.00087,0.00019358759767020527,0.00023059079999999997,0.13268,0.00139,-0.00077,0.00123,0.0002539613346543736,0.0003968461,0.18601,0.002
14,3,-0.00025,0.00023,6.235801421000404e-05,2.4019400000000002e-05,0.04719,0.00048,-0.00073,0.00101,0.00010077399992573814,6.27299e-05,0.036210000000000006,0.00174,-0.00029,0.00024,4.000283299017375e-05,9.8846e-06,0.025130000000000003,0.00053,-0.0001,0.00014,3.619287100084562e-05,8.0914e-06,0.02698,0.00023999999999999998,-0.00061,0.00052,0.00012356588692616723,9.43137e-05,0.07782,0.00113,-0.00076,0.00048,0.00011955214305963202,8.828610000000001e-05,0.08074,0.00124,-0.00052,0.00057,0.00015385984173426774,0.00014622719999999998,0.11221,0.0010899999999999998,-0.00094,0.00122,0.00023388899816200506,0.00033790700000000003,0.18243,0.00216
14,4,-0.00025,0.00031,6.62940034610594e-05,2.9270000000000003e-05,0.0495,0.00056,-0.001,0.00102,9.367480968739681e-05,5.84413e-05,0.06359999999999999,0.00202,-0.00041,0.00046,0.00011729649810829151,9.16314e-05,0.08795,0.00087,-0.00128,0.00127,0.000455895778617175,0.0013842208,0.35493,0.00255,-0.00126,0.00109,0.00038684368035814395,0.0009966559,0.29214,0.00235,-0.00076,0.001,0.00023590621386843766,0.00037064060000000003,0.16951,0.00176,-0.00032,0.00044,0.00011094319895060462,8.19739e-05,0.08192,0.00076,-0.00066,0.00088,0.0001750335017267478,0.0002040406,0.12349,0.0015400000000000001
14,5,-0.00074,0.00071,0.0001506495750318424,0.000157233,0.11696000000000001,0.00145,-0.00029,0.00029,8.015771837597742e-05,4.45142e-05,0.06531,0.00058,-0.00027,0.00028,6.306396822084608e-05,2.75531e-05,0.05671000000000001,0.0005499999999999999,-0.00098,0.00112,0.0002458745349797332,0.00041882730000000003,0.23162000000000002,0.0021,-0.00018,0.00017,4.133734366797441e-05,1.1838400000000002e-05,0.032310000000000005,0.00035000000000000005,-0.00076,0.00068,0.0001875779668536822,0.00024376510000000004,0.15971,0.00144,-0.00023,0.00032,6.38205752078553e-05,2.82182e-05,0.05345,0.00055,-0.00015,0.00023,4.3323765006272554e-05,1.30035e-05,0.036930000000000004,0.00038
14,6,-0.00019,0.0002,5.246733108087521e-05,1.7761200000000002e-05,0.04116,0.00039000000000000005,-0.00012,9e-05,3.006657213708326e-05,5.8326e-06,0.02262,0.00021,-0.0004,0.00025,6.831988688210354e-05,3.01154e-05,0.04804,0.00065,-0.00034,0.00028,6.892890125625372e-05,3.06547e-05,0.058679999999999996,0.00062,-0.00053,0.0006,0.00012533507476816761,0.0001013537,0.10553000000000001,0.00113,-0.00108,0.00127,0.0003487601811849521,0.0007847803999999999,0.26992,0.00235,-0.00045,0.0006,0.0001294666320079101,0.0001081459,0.09979,0.00105,-0.00116,0.00127,0.00029660109603200945,0.0005675967,0.23898000000000003,0.00243
15,1,-6e-05,3e-05,1.5541887549808892e-05,1.5737000000000005e-06,0.0091,9e-05,-6e-05,5e-05,1.7413749738907646e-05,1.9756e-06,0.010590000000000002,0.00011,-9e-05,3e-05,1.8228531354276384e-05,2.1648000000000004e-06,0.01119,0.00012,-0.00014,9e-05,1.904915481876496e-05,2.3641000000000004e-06,0.013080000000000001,0.00023,-0.00021,0.00032,3.018693358598473e-05,5.9368000000000005e-06,0.014850000000000002,0.0005300000000000001,-0.00017,0.00032,4.268537738879948e-05,1.18706e-05,0.027139999999999997,0.00049,-9e-05,5e-05,1.9395310016916682e-05,2.4508000000000003e-06,0.012390000000000002,0.00014000000000000001,-7e-05,4e-05,1.6986293061084067e-05,1.8798000000000002e-06,0.01041,0.00010999999999999999
15,2,-0.00128,0.00127,0.000737468106751851,0.0034904884,0.61176,0.00255,-0.00121,0.00127,0.00043608093099024864,0.0012204891,0.35647999999999996,0.00248,-0.00047,0.00054,0.00011582948374692533,8.61069e-05,0.09176000000000001,0.00101,-0.00094,0.00095,0.0002546261289922802,0.0004161076,0.20699,0.00189,-0.00104,0.00122,0.00028252175420973523,0.0005122754,0.22577000000000003,0.00226,-0.00073,0.00085,0.0002059201695696325,0.0002721432,0.16119,0.0015799999999999998,-0.00107,0.00079,0.00026937059471127096,0.0004656934,0.2016,0.00186,-0.00128,0.001,0.00033454850437007505,0.0007183199,0.25373999999999997,0.00228
15,3,-0.00083,0.00068,0.0001363472249414535,0.00012158230000000001,0.10537,0.00151,-0.00128,0.00127,0.00042825936723779134,0.0011994758,0.34464000000000006,0.00255,-0.00056,0.00079,0.0001267146617585622,0.00010501020000000001,0.09906999999999999,0.00135,-0.00016,0.00022,4.518362129165305e-05,1.3351800000000001e-05,0.038279999999999995,0.00038,-0.00066,0.00074,0.00018922883901990037,0.0002341814,0.16292,0.0014,-0.00083,0.00092,0.00020821977333124487,0.0002835448,0.18665,0.00175,-0.00027,0.00025,7.573422464694923e-05,3.7511299999999994e-05,0.06262000000000001,0.0005200000000000001,-0.00073,0.00076,0.00018433619233422868,0.0002222281,0.14373,0.00149
15,4,-0.00021,0.0002,6.132003386343888e-05,2.5144100000000002e-05,0.04575,0.00041,-0.00016,0.00015,4.399076809494693e-05,1.29406e-05,0.031520000000000006,0.00031,-0.00026,0.00027,7.002798047886039e-05,3.27925e-05,0.05047,0.00053,-0.00055,0.00069,0.00015846174340019827,0.0001679114,0.11759000000000001,0.00124,-0.00128,0.00127,0.000610666748458678,0.0024936751,0.48929,0.00255,-0.00128,0.00127,0.0005699008463996882,0.0021718505,0.44866999999999996,0.00255,-0.00067,0.00063,0.00016989497895225563,0.00019301560000000004,0.12719000000000003,0.0013,-0.00046,0.0005,0.00011232649914711682,8.43715e-05,0.08303,0.00096
15,5,-0.00013,8e-05,2.5529065974544454e-05,4.2115e-06,0.01793,0.00021,-0.00071,0.00044,0.00010100355307832794,6.59235e-05,0.06118,0.00115,-0.00018,0.0001,3.3840386721266055e-05,7.4001000000000005e-06,0.024550000000000002,0.00028000000000000003,-0.00032,0.00032,9.295494660544636e-05,5.5835700000000005e-05,0.07647999999999999,0.00064,-0.00128,0.00127,0.00047463925280502524,0.0014557749999999999,0.37122,0.00255,-0.00072,0.00075,0.00020531980173430544,0.00027241350000000006,0.16097,0.00147,-0.00024,0.00025,7.197096976568173e-05,3.3472e-05,0.05628,0.00049,-0.0001,0.00011,2.956011977147217e-05,5.646499999999999e-06,0.02211,0.00021
15,6,-0.00039,0.00031,9.323939900232995e-05,6.34284e-05,0.07844000000000001,0.0007,-0.00012,0.0001,3.3403024734349624e-05,8.140600000000001e-06,0.027440000000000003,0.00022,-0.0001,0.00013,3.544400389742605e-05,9.1658e-06,0.029360000000000004,0.00023,-0.00026,0.00028,6.335511513710007e-05,2.9285200000000002e-05,0.051430000000000003,0.0005399999999999999,-0.00117,0.00126,0.00038134248950024503,0.0010609996,0.33314,0.00243,-0.00128,0.00116,0.0004640357533346,0.0015710417,0.40457,0.0024400000000000003,-0.00062,0.00065,0.00018073797156113993,0.0002383327,0.15043,0.0012699999999999999,-0.0008,0.00082,0.00019899449129508426,0.0002889129,0.17084,0.00162
16,1,-7e-05,0.00015,1.8031378663594588e-05,1.8669000000000003e-06,0.01173,0.00021999999999999998,-0.00011,8e-05,2.7561716314480722e-05,4.3619000000000005e-06,0.019090000000000003,0.00019,-0.00019,0.00011,3.9021691937408796e-05,8.743300000000001e-06,0.02731,0.00030000000000000003,-9e-05,6e-05,1.9235202982712003e-05,2.1245e-06,0.01191,0.00015000000000000001,-0.00018,0.00014,3.6172214734157835e-05,7.513e-06,0.02023,0.00031999999999999997,-0.00019,0.00017,3.881607354316394e-05,8.6514e-06,0.023370000000000002,0.00036,-0.00014,8e-05,2.0268143266892144e-05,2.3588e-06,0.01311,0.00021999999999999998,-7e-05,6e-05,1.936873852486458e-05,2.1541000000000003e-06,0.01235,0.00013
16,2,-0.00048,0.00044,8.890381358913755e-05,5.36674e-05,0.06427,0.00092,-0.00031,0.00027,7.325425289367391e-05,3.64364e-05,0.060160000000000005,0.00058,-0.00097,0.00056,0.00017470657074523927,0.000207247,0.13699,0.0015300000000000001,-0.0009,0.00085,0.0002167887198234927,0.00031911200000000003,0.16353,0.0017499999999999998,-0.00048,0.00067,0.0001650557990177761,0.00018498280000000001,0.12906,0.00115,-0.00128,0.00127,0.0004369241634368531,0.0012962295,0.36317,0.00255,-0.00074,0.00078,0.00021412664690109766,0.000311323,0.16838,0.00152,-0.00046,0.00042,9.225580751702625e-05,5.779060000000001e-05,0.06774,0.00088
16,3,-0.0009,0.00094,0.0002221491085524081,0.0003596151,0.17656,0.00184,-0.00074,0.00047,0.0001286913046815703,0.00012068330000000002,0.10722000000000001,0.00121,-0.00032,0.00032,6.5850465397415e-05,3.15985e-05,0.05888,0.00064,-0.00046,0.00066,0.00011399551463516906,9.46944e-05,0.09938000000000001,0.00112,-0.00065,0.00091,0.0002045467799955113,0.00030488360000000003,0.18867,0.00156,-0.00056,0.00043,0.00012888965390825313,0.0001210556,0.11748,0.00099,-0.00078,0.00081,0.00020768675016618736,0.0003143159,0.17282,0.0015899999999999998,-0.00064,0.00083,0.00020807982655004874,0.00031550679999999996,0.16316000000000003,0.00147
16,4,-0.00033,0.00036,8.572640869438588e-05,5.2714500000000005e-05,0.07408999999999999,0.0006900000000000001,-0.00047,0.00057,0.0001572446779686914,0.0001773588,0.13929999999999998,0.00104,-0.00072,0.00068,0.00019412893882819691,0.00027032200000000003,0.17513,0.0014000000000000002,-0.00128,0.00127,0.0004990220185976859,0.0017862417999999999,0.45777,0.00255,-0.00128,0.00127,0.0005799918275334388,0.0024129292,0.52828,0.00255,-0.00128,0.00119,0.0003699333212965452,0.0009816298,0.35297,0.00247,-0.00063,0.00064,0.00017563681905251817,0.00022127479999999998,0.15857,0.00127,-0.00037,0.00037,9.039228601013487e-05,5.860890000000001e-05,0.07941999999999999,0.00074
16,5,-0.00041,0.00025,6.56506947215425e-05,3.142e-05,0.05501,0.00066,-0.00026,0.0003,8.097951442080822e-05,4.78055e-05,0.07509,0.00056,-0.00069,0.00073,0.00015476088906644572,0.0001746023,0.14033,0.0014199999999999998,-0.00122,0.00124,0.0003676116890272472,0.0009851586,0.32750999999999997,0.00246,-0.00092,0.00103,0.0003113179647425859,0.0007065386,0.27716999999999997,0.0019500000000000001,-0.00082,0.00102,0.00020039706811936047,0.00029275899999999997,0.17003000000000001,0.00184,-0.00022,0.00042,7.39229012963973e-05,3.98369e-05,0.062130000000000005,0.00064,-0.00018,0.00025,4.4279477793162105e-05,1.4293300000000001e-05,0.03903,0.00043000000000000004
16,6,-0.00047,0.00024,7.831383870575827e-05,4.88866e-05,0.07656000000000002,0.00071,-0.00015,0.00014,4.3951422186680865e-05,1.5397800000000004e-05,0.045540000000000004,0.00029,-0.0002,0.00017,5.234208526943217e-05,2.18381e-05,0.05238,0.00037,-0.00042,0.00047,0.0001102228556489736,9.684030000000001e-05,0.11120000000000001,0.00089,-0.00088,0.00095,0.000250384148467985,0.0004997197,0.26988999999999996,0.00183,-0.00059,0.00079,0.00019708173911631786,0.0003096033,0.20218999999999998,0.0013800000000000002,-0.00058,0.00055,0.00016168868765305516,0.0002083877,0.15929,0.00113,-0.00047,0.00048,0.00012931795644937835,0.00013330010000000002,0.12614,0.00095
17,1,-5e-05,4e-05,1.641118018948381e-05,1.7684000000000003e-06,0.011530000000000002,9e-05,-0.00021,0.0001,3.7899863251476904e-05,9.4314e-06,0.03062,0.00031,-0.00023,0.00019,4.959368873998871e-05,1.61493e-05,0.04337,0.00042,-8e-05,8e-05,2.3535056256189056e-05,3.6369000000000003e-06,0.01777,0.00016,-5e-05,3e-05,1.6396325078777638e-05,1.7652000000000003e-06,0.011300000000000001,8e-05,-0.00017,0.00013,2.666051050882033e-05,4.6669999999999995e-06,0.01866,0.00030000000000000003,-6e-05,3e-05,1.515480077723332e-05,1.5080000000000002e-06,0.01059,9e-05,-5e-05,3e-05,1.575783846353793e-05,1.6304000000000005e-06,0.010270000000000001,8e-05
17,2,-0.00039,0.00063,8.387623748288813e-05,4.727670000000001e-05,0.055479999999999995,0.00102,-0.00023,0.00025,5.838768726203817e-05,2.29093e-05,0.04943,0.00048,-0.00069,0.00067,0.00013132662162569666,0.0001158977,0.10888,0.00136,-0.00095,0.001,0.0001962385877785833,0.0002587844,0.15089,0.00195,-0.00016,0.00023,4.608319340373158e-05,1.4271000000000001e-05,0.03734,0.00039000000000000005,-0.0004,0.00046,9.828386063797338e-05,6.49133e-05,0.08317999999999999,0.0008600000000000001,-0.00055,0.00044,0.00011761038381432194,9.295239999999999e-05,0.09777,0.00099,-0.0003,0.00019,5.75996806786791e-05,2.2295100000000003e-05,0.04356,0.00049
17,3,-0.00056,0.00066,0.0001165014551817782,9.10585e-05,0.09337999999999999,0.00122,-0.0005,0.00045,0.00011554384486613955,8.956770000000001e-05,0.09507000000000002,0.00095,-0.00035,0.00021,5.460163459569457e-05,2.0001800000000002e-05,0.047689999999999996,0.00056,-0.00016,0.00016,3.938111175468221e-05,1.04048e-05,0.033260000000000005,0.00032,-0.00027,0.00029,7.628542710395934e-05,3.90428e-05,0.06745,0.00056,-0.00031,0.00035,7.414701007254328e-05,3.68846e-05,0.06334,0.00066,-0.00033,0.00039,6.398967721191887e-05,2.7471200000000002e-05,0.05162,0.0007199999999999999,-0.00059,0.00073,0.00015075365890411492,0.0001524732,0.10324,0.00132
17,4,-0.00028,0.00024,6.082050229798967e-05,2.51874e-05,0.04676,0.00052,-0.00036,0.00035,9.123441569783423e-05,5.66762e-05,0.07082,0.00071,-0.00063,0.00054,0.00013612307071315775,0.0001261673,0.09984,0.00117,-0.00096,0.00103,0.00023040871817760404,0.00036147740000000005,0.17892999999999998,0.00199,-0.00121,0.00127,0.00035713685369353576,0.0008684656999999999,0.28086,0.00248,-0.00125,0.00127,0.00034307842414071975,0.0008014383999999999,0.27533,0.00252,-0.00057,0.00057,0.00013003603328129752,0.00011513590000000001,0.10069,0.00114,-0.0004,0.00052,0.00010722921919267502,7.82906e-05,0.08241,0.00092
17,5,-0.00021,0.00016,4.178932233603224e-05,1.2072500000000002e-05,0.034050000000000004,0.00037,-0.00039,0.00039,8.744819300758666e-05,5.2865e-05,0.07159,0.00078,-0.00096,0.00093,0.00019202036664484848,0.0002548949,0.14638,0.0018900000000000002,-0.00103,0.001,0.0002616864101005258,0.00047340070000000004,0.21234999999999996,0.00203,-0.00094,0.00092,0.00022508753942639955,0.00035024300000000003,0.19218999999999997,0.00186,-0.00049,0.00062,0.00011423029669387691,9.02047e-05,0.09225,0.0011099999999999999,-0.00019,0.00029,5.9950797126381524e-05,2.4846000000000002e-05,0.050530000000000005,0.00048,-0.00015,0.00022,3.7824157089617304e-05,9.8902e-06,0.031939999999999996,0.00037
17,6,-0.00039,0.00067,0.00011461484823775107,9.20479e-05,0.08593,0.00106,-0.00026,0.00045,7.076071392835222e-05,3.50846e-05,0.056440000000000004,0.0007099999999999999,-0.00038,0.00026,7.658612514962869e-05,4.10991e-05,0.059860000000000003,0.0006399999999999999,-0.00042,0.00053,9.801301236195308e-05,6.73131e-05,0.07572,0.00095,-0.00115,0.00095,0.00022032032287016475,0.0003401271,0.17831,0.0021,-0.00083,0.00075,0.00022640585641001612,0.00035917610000000004,0.18164,0.00158,-0.00042,0.0005,9.806912804087011e-05,6.73902e-05,0.08407,0.00092,-0.00057,0.00107,0.0002103441355128644,0.0003100223,0.17911,0.00164
18,1,-4e-05,3e-05,1.4074253791329055e-05,1.3858000000000004e-06,0.00938,7.000000000000001e-05,-8e-05,4e-05,1.9211515628954406e-05,2.5821000000000007e-06,0.014730000000000002,0.00012000000000000002,-0.00067,0.00055,8.311174082940163e-05,4.83253e-05,0.04765,0.0012200000000000002,-0.0006,0.00025,6.604300191369601e-05,3.05143e-05,0.05229,0.00085,-0.00044,0.00031,4.907244268647981e-05,1.68471e-05,0.03175,0.00075,-0.00022,0.00068,5.3534853696635796e-05,2.00504e-05,0.03334,0.0009000000000000001,-0.00025,0.0005,5.305301727055233e-05,1.96911e-05,0.03264,0.00075,-6e-05,3e-05,1.5075093146993088e-05,1.5899000000000002e-06,0.00961,9e-05
18,2,-0.00124,0.00126,0.00035603425205977564,0.0008480269999999999,0.30177,0.0025,-0.00022,0.00022,5.3990809160833846e-05,1.9501400000000003e-05,0.045970000000000004,0.00044,-0.00043,0.0003,9.54785758452688e-05,6.0987100000000004e-05,0.07933000000000001,0.00073,-0.00128,0.00127,0.0003822703986683462,0.0009776141,0.32738,0.00255,-0.00051,0.00087,0.00013825784494591199,0.00012788089999999998,0.10839,0.0013800000000000002,-0.00103,0.00109,0.0002617422653163065,0.0004583253,0.21813,0.0021200000000000004,-0.00119,0.00127,0.0003530868997065649,0.0008340447,0.31590999999999997,0.0024600000000000004,-0.0005,0.00096,0.00013257910744510825,0.00011759160000000001,0.10628,0.00146
18,3,-0.00092,0.00104,0.00017747438066632255,0.00027131649999999997,0.17018000000000003,0.00196,-0.00125,0.00125,0.00033805755654822223,0.000984433,0.31694,0.0025,-0.00064,0.00061,6.651391058894522e-05,3.81092e-05,0.05324,0.00125,-0.00027,0.00019,3.94046712588598e-05,1.3375200000000002e-05,0.037770000000000005,0.00046,-0.00034,0.00067,5.512539265818007e-05,2.6176300000000002e-05,0.046130000000000004,0.00101,-0.00055,0.0011,0.00015334177066324032,0.00020254700000000002,0.12732,0.00165,-0.0003,0.00025,5.851412606104835e-05,2.9493500000000005e-05,0.05574,0.0005499999999999999,-0.00127,0.0011,0.0003309172089973368,0.0009432864,0.31346999999999997,0.00237
18,4,-0.00023,0.00014,3.841265698777719e-05,1.03966e-05,0.027700000000000002,0.00037,-0.00017,0.00011,3.8543596823449196e-05,1.0467600000000001e-05,0.031310000000000004,0.00028000000000000003,-0.0005,0.00039,0.00010328152553525082,7.516019999999999e-05,0.08157,0.00089,-0.00128,0.00119,0.00038628102292081155,0.001051355,0.31861,0.00247,-0.00128,0.00127,0.0005327338858481326,0.0019996928000000002,0.47165999999999997,0.00255,-0.00112,0.00126,0.00040441826121335995,0.0011524024,0.33781,0.00238,-0.00021,0.00033,6.772435407674318e-05,3.23171e-05,0.05670000000000001,0.00054,-0.00011,0.00015,3.3869563292535226e-05,8.0828e-06,0.028470000000000002,0.00026
18,5,-0.00115,0.00071,0.00014075737487226632,0.0001340325,0.09303,0.00186,-0.0007,0.00034,0.00010261330333915311,7.123200000000001e-05,0.08369,0.0010400000000000001,-0.00061,0.00029,7.617189880156733e-05,3.9251599999999995e-05,0.058730000000000004,0.0009,-0.00075,0.00062,0.0001308131372080915,0.00011576320000000001,0.10643999999999999,0.0013700000000000001,-0.0006,0.00071,0.00017544503648661628,0.0002082332,0.14509,0.00131,-0.00029,0.00073,8.543164606454584e-05,4.9374799999999994e-05,0.055799999999999995,0.00102,-8e-05,8e-05,2.4875744426124573e-05,4.186200000000001e-06,0.01914,0.00016,-9e-05,7e-05,2.3009365360845825e-05,3.5816000000000006e-06,0.017410000000000002,0.00015999999999999999
18,6,-0.00056,0.00082,8.00862812405299e-05,4.9174699999999995e-05,0.060110000000000004,0.00138,-9e-05,5e-05,2.321071834730603e-05,4.1305000000000005e-06,0.0194,0.00014000000000000001,-0.00073,0.00052,0.00013743224613347568,0.00014481139999999998,0.09536,0.0012499999999999998,-0.00014,0.00013,3.660444265907723e-05,1.0272900000000001e-05,0.031810000000000005,0.00026999999999999995,-0.00068,0.00076,0.00015624581903888628,0.0001871726,0.14689000000000002,0.00144,-0.00128,0.00127,0.0005365929988667068,0.0022075750000000002,0.48089,0.00255,-0.00041,0.00039,0.0001076503016842927,8.884970000000001e-05,0.0957,0.0007999999999999999,-0.00118,0.00098,0.00019802658862650278,0.0003006578,0.17243,0.00216
19,1,-6e-05,4e-05,1.703351461109536e-05,1.8157000000000003e-06,0.01219,0.0001,-0.00018,0.00011,4.016842935095771e-05,1.00973e-05,0.03193,0.00029,-0.00019,0.00011,4.890556772158687e-05,1.49676e-05,0.03973,0.00030000000000000003,-0.0002,0.00015,3.8896368119149036e-05,9.4679e-06,0.03093,0.00035,-0.00026,0.00028,5.264435935053838e-05,1.73436e-05,0.03833,0.0005399999999999999,-7e-05,4e-05,1.6803053337715946e-05,1.7669000000000004e-06,0.010750000000000001,0.00010999999999999999,-5e-05,3e-05,1.447548925148981e-05,1.3113000000000003e-06,0.008820000000000001,8e-05,-5e-05,3e-05,1.4522879536839584e-05,1.3199000000000003e-06,0.0089,8e-05
19,2,-0.00018,0.00023,5.331025671551766e-05,2.0632800000000003e-05,0.04639000000000001,0.00041,-0.00016,0.00015,4.752395365285765e-05,1.63969e-05,0.04472,0.00031,-0.00028,0.00026,7.490535810058157e-05,4.07345e-05,0.06883,0.0005399999999999999,-0.00038,0.00053,0.00012323754749648277,0.00011026120000000001,0.11588,0.00091,-0.00074,0.00074,0.00018230257444736721,0.00024128049999999997,0.16964,0.00148,-0.00108,0.00127,0.0003160396285783709,0.0007251364000000001,0.27927,0.00235,-0.00075,0.00096,0.000251895513779538,0.0004606568,0.21916,0.0017100000000000001,-0.00057,0.00043,0.00012169119342201386,0.00010751150000000002,0.11027,0.001
19,3,-0.00117,0.00127,0.00026699669751436645,0.0004970859,0.21974,0.0024400000000000003,-0.00059,0.00071,0.00013528629128972368,0.0001276225,0.11043,0.0013,-0.00019,0.00024,5.377809732236193e-05,2.01665e-05,0.04821,0.00043000000000000004,-0.00026,0.00032,8.585846764513262e-05,5.14027e-05,0.06589,0.00058,-0.00057,0.00068,0.00019445105987166698,0.0002636576,0.14518999999999999,0.00125,-0.00031,0.00043,0.00011704816307641992,9.5532e-05,0.08982,0.00074,-0.00084,0.0009,0.00022162470619776646,0.0003424964,0.17811,0.00174,-0.00099,0.00109,0.00026717552672787364,0.000497752,0.23128,0.0020800000000000003
19,4,-0.00017,0.00017,5.5236049910731585e-05,2.3303700000000002e-05,0.04924,0.00034,-0.00026,0.00029,8.618587304933284e-05,5.67351e-05,0.07608,0.0005499999999999999,-0.00076,0.00108,0.00021249022280851206,0.0003448717,0.18314,0.00184,-0.00128,0.00127,0.0005403274782139214,0.0022299430000000003,0.50136,0.00255,-0.00128,0.00127,0.0005675748194735602,0.0024605143,0.51975,0.00255,-0.00072,0.00083,0.00023520887075736163,0.00042255870000000004,0.21537,0.0015500000000000002,-0.00027,0.0003,8.13859393144406e-05,5.05916e-05,0.07137000000000002,0.00057,-0.00018,0.00024,6.446204158202569e-05,3.17386e-05,0.055990000000000005,0.00042
19,5,-0.00086,0.00053,0.0001355965969851168,0.0001399024,0.12072,0.00139,-0.00033,0.00019,7.067768015671894e-05,3.80095e-05,0.06262000000000001,0.0005200000000000001,-0.00031,0.0002,7.42654925619205e-05,4.19664e-05,0.06965,0.00051,-0.00072,0.00058,0.00019256900833933572,0.0002821632,0.17352,0.0013,-0.00097,0.00087,0.0002106445184557938,0.0003376198,0.18521,0.00184,-0.00022,0.0003,7.342117504283637e-05,4.10176e-05,0.06624,0.00052,-0.00011,8e-05,2.9960327735317886e-05,6.83e-06,0.02631,0.00019,-0.00026,0.00032,5.589802592348197e-05,2.3775000000000002e-05,0.04766,0.00058
19,6,-0.00024,0.0002,6.369272913949336e-05,2.9809100000000002e-05,0.05412,0.00044,-0.00018,0.00013,4.747374141686566e-05,1.65606e-05,0.042760000000000006,0.00031,-0.00016,0.00016,5.338781297039193e-05,2.09437e-05,0.04803,0.00032,-0.00047,0.00049,0.00014142607148699387,0.0001469698,0.12125,0.0009599999999999999,-0.00128,0.00127,0.0004011327354140976,0.0011823480999999998,0.33731999999999995,0.00255,-0.00074,0.00069,0.00018592655904028284,0.0002540107,0.14973,0.0014299999999999998,-0.00088,0.00055,0.00014479407411099106,0.0001540532,0.11629999999999999,0.00143,-0.00064,0.00071,0.00019344004963679103,0.00027495519999999997,0.16442,0.00135
20,1,-8e-05,3e-05,1.5895618827488228e-05,2.0057e-06,0.01421,0.00011,-0.00016,8e-05,2.699812895358219e-05,5.786e-06,0.026320000000000003,0.00024000000000000003,-0.00014,8e-05,2.6442272057725007e-05,5.5502e-06,0.02702,0.00021999999999999998,-0.00022,0.00017,3.142496371789892e-05,7.839e-06,0.028190000000000003,0.00039000000000000005,-0.00048,0.00028,4.918240584903857e-05,1.9201300000000002e-05,0.034570000000000004,0.00076,-0.00012,0.00021,2.192258304274979e-05,3.815e-06,0.016790000000000003,0.00033,-5e-05,6e-05,1.4511010059619316e-05,1.6715000000000004e-06,0.01159,0.00011,-5e-05,3e-05,1.3854606215215603e-05,1.5237000000000003e-06,0.011040000000000001,8e-05
20,2,-0.00116,0.00083,0.00028280738946140653,0.0005732168,0.26854,0.00199,-0.00084,0.00058,0.00016152898917383,0.0001869986,0.15812,0.00142,-0.00128,0.00127,0.00038197576292990393,0.0010457046,0.389,0.00255,-0.00128,0.00127,0.0006846783191583829,0.0033597778,0.71744,0.00255,-0.00078,0.00091,0.00023282709339910343,0.00038851200000000004,0.22403,0.00169,-0.00128,0.00127,0.000518953248220326,0.0019301625000000002,0.53128,0.00255,-0.00128,0.00127,0.0005253276997556898,0.0019778712,0.48965000000000003,0.00255,-0.00128,0.00127,0.0006745030365457778,0.0032606578,0.6981200000000001,0.00255
20,3,-0.00116,0.00127,0.00040158321535209283,0.0011187236,0.35849,0.00243,-0.00118,0.00127,0.0003046789039947285,0.0006439564,0.2475,0.00245,-0.00023,0.00127,8.003071703788328e-05,4.4430899999999995e-05,0.062360000000000006,0.0015,-0.00042,0.00127,0.00011041294839172195,8.45691e-05,0.10098000000000001,0.00169,-0.0007,0.00116,0.0002183750782194975,0.0003308094,0.1933,0.00186,-0.00127,0.00127,0.0003997405277787023,0.0011084805,0.34795,0.00254,-0.00106,0.00127,0.00026713265049853704,0.0004950232999999999,0.22252,0.00233,-0.00128,0.00127,0.0004724111487873974,0.0015481461999999999,0.39786,0.00255
20,4,-0.0003,0.00025,5.2918673358209886e-05,1.95887e-05,0.050159999999999996,0.0005499999999999999,-0.00045,0.00027,8.010375687580616e-05,4.48842e-05,0.08394,0.0007199999999999999,-0.00105,0.00092,0.00021621584667104747,0.0003270113,0.22614,0.00197,-0.00128,0.00127,0.0005559279474656875,0.0021618459,0.57432,0.00255,-0.00128,0.00127,0.0005344523226665943,0.0019980468,0.56216,0.00255,-0.00128,0.00127,0.0005357899847806785,0.0020080610000000002,0.52762,0.00255,-0.0003,0.00052,9.651615471041949e-05,6.5161e-05,0.09641,0.00082,-0.00015,0.00016,4.869152804649409e-05,1.6584200000000003e-05,0.04825,0.00031
20,5,-0.00092,0.0008,0.00015020505710530905,0.0001507789,0.12575000000000003,0.0017200000000000002,-0.00034,0.00035,8.862264251714435e-05,5.24881e-05,0.07844000000000001,0.0006900000000000001,-0.00059,0.00077,0.00014768491276372184,0.0001457618,0.13549999999999998,0.00136,-0.00128,0.00127,0.0003925718138873532,0.0010299347,0.37491,0.00255,-0.00128,0.00126,0.0003972101007437684,0.0010544161000000001,0.36451,0.00254,-0.00041,0.00044,0.0001261120517179387,0.0001062881,0.12423,0.0008500000000000001,-0.00013,0.00019,4.262012009766098e-05,1.2139500000000001e-05,0.04184,0.00031999999999999997,-0.00023,0.0002,3.9131297153029e-05,1.02334e-05,0.03215,0.00043000000000000004
20,6,-0.00069,0.00078,0.00018725387288429207,0.000260736,0.16644,0.00147,-0.00044,0.00045,7.434219326760881e-05,4.1097e-05,0.061509999999999995,0.00089,-0.00022,0.00022,6.346291585705905e-05,2.99488e-05,0.05894,0.00044,-0.00076,0.00082,0.0002288283180450408,0.00038936680000000004,0.21421,0.00158,-0.00128,0.00127,0.0005200279298991613,0.0020109104000000004,0.5035200000000001,0.00255,-0.00128,0.00127,0.0005095137515756024,0.0019304173,0.48016000000000003,0.00255,-0.00071,0.00073,0.00021243677665945773,0.0003355821,0.18865,0.0014399999999999999,-0.00114,0.00119,0.0003749102636042158,0.0010451871,0.3607,0.00233
21,1,-0.0002,4e-05,2.224653933381423e-05,3.1105e-06,0.011729999999999999,0.00024,-0.00019,0.00012,3.147147058242738e-05,6.2250000000000005e-06,0.022690000000000002,0.00031,-0.00062,0.00018,6.094078140707081e-05,2.33411e-05,0.03923,0.0008,-0.00038,0.00021,4.328477788805074e-05,1.17754e-05,0.029560000000000003,0.00059,-0.00023,0.00047,3.607426265929998e-05,8.179e-06,0.01811,0.0007,-0.00026,0.00043,4.7501622465277935e-05,1.41815e-05,0.026869999999999998,0.00069,-5e-05,4e-05,1.5913449278504853e-05,1.5916000000000004e-06,0.01049,9e-05,-6e-05,4e-05,1.565793863073582e-05,1.5409000000000004e-06,0.01006,0.0001
21,2,-0.00128,0.00127,0.00039459825289853774,0.0010645741,0.3498,0.00255,-0.00044,0.00044,0.00010795979186416297,7.96874e-05,0.10243,0.00088,-0.00094,0.00088,0.0002300806848575855,0.0003619311,0.21539,0.00182,-0.00112,0.00125,0.00035085211468233353,0.0008416156,0.33416999999999997,0.0023699999999999997,-0.00097,0.00093,0.0002992074998727642,0.0006120833,0.29100000000000004,0.0019000000000000002,-0.00101,0.00127,0.00028905384987294323,0.0005712459,0.25972,0.00228,-0.00128,0.00127,0.00040991965450979073,0.0011488493,0.37732,0.00255,-0.00128,0.00127,0.00047191827654139627,0.0015226468000000002,0.4882,0.00255
21,3,-0.00112,0.00105,0.00025303663105742154,0.0004366678,0.23306000000000002,0.00217,-0.00035,0.00022,6.0764798229010786e-05,2.51819e-05,0.055150000000000005,0.00057,-0.0004,0.00033,7.484696018329879e-05,3.82061e-05,0.06312000000000001,0.00073,-0.00072,0.00059,0.0001235079870854529,0.00010403380000000001,0.10827,0.00131,-0.00124,0.00105,0.00034821400201936965,0.0008269454000000001,0.32699,0.00229,-0.00093,0.00092,0.00022251574131275153,0.0003376804,0.20294,0.00185,-0.0006,0.0005,0.00011115166252517935,8.425900000000001e-05,0.10538,0.0010999999999999998,-0.00056,0.00029,8.333833807063516e-05,4.736680000000001e-05,0.07163,0.00085
21,4,-0.00015,0.00014,4.6913669889719254e-05,1.3564100000000001e-05,0.040530000000000004,0.00029,-0.00027,0.0003,7.616167249324976e-05,3.57491e-05,0.06778,0.00057,-0.00043,0.00061,0.00013316367864062197,0.00010928580000000001,0.12092,0.00104,-0.00128,0.00127,0.0005117050175519403,0.0016137324000000002,0.46046000000000004,0.00255,-0.00128,0.00127,0.0006320836126108353,0.0024623015000000002,0.5500400000000001,0.00255,-0.00128,0.00127,0.0005068168759751039,0.0015830488,0.44554000000000005,0.00255,-0.00039,0.00041,0.00010483949238118859,6.773949999999999e-05,0.08874,0.0007999999999999999,-0.00033,0.00033,7.050661575687509e-05,3.06374e-05,0.06014,0.00066
21,5,-0.00096,0.0011,0.0002948823653371422,0.0005743418,0.25775,0.00206,-0.00028,0.00032,8.231730855912266e-05,4.4756400000000004e-05,0.07285,0.0006000000000000001,-0.00087,0.00065,0.00019652861712863082,0.0002551082,0.17917,0.00152,-0.00128,0.00127,0.0004604091752233283,0.0014001055,0.42891999999999997,0.00255,-0.00109,0.00115,0.0003561343042939399,0.000837723,0.30745,0.00224,-0.00033,0.00033,7.972473460664517e-05,4.1981600000000005e-05,0.06904,0.00066,-0.00015,0.00019,3.790142199909454e-05,9.488199999999998e-06,0.03114,0.00034,-0.00061,0.00026,8.496559396282997e-05,4.76825e-05,0.062240000000000004,0.0008699999999999999
21,6,-0.00128,0.0011,0.0004142535609492938,0.0010759697,0.36031,0.00238,-0.00037,0.00035,7.923457592698176e-05,3.9363800000000004e-05,0.06955,0.0007199999999999999,-0.00029,0.00021,6.604852983572726e-05,2.73523e-05,0.0598,0.0005,-0.00071,0.00093,0.00017099297205215222,0.000183326,0.15449000000000002,0.00164,-0.0012,0.00127,0.00041954070352455316,0.0011036103,0.39562,0.00247,-0.00128,0.00127,0.0004898958324325425,0.0015047869999999998,0.43907,0.00255,-0.00086,0.00079,0.0002495903182291844,0.0003905917,0.20717,0.00165,-0.00078,0.00104,0.0002206151324878124,0.0003051674,0.19271,0.00182
22,1,-5e-05,3e-05,1.4845253196733983e-05,1.3516000000000003e-06,0.00842,8e-05,-6e-05,5e-05,1.676658996489876e-05,1.7241000000000001e-06,0.00935,0.00011,-0.00023,0.00016,4.6797836510229106e-05,1.34315e-05,0.02674,0.00039000000000000005,-0.00011,9e-05,2.7399967032463115e-05,4.6044e-06,0.01762,0.0002,-6e-05,7e-05,2.257512775782708e-05,3.1256e-06,0.015360000000000002,0.00013,-6e-05,6e-05,2.0792233495912923e-05,2.6514000000000006e-06,0.01475,0.00012,-5e-05,3e-05,1.57398133754427e-05,1.5194000000000004e-06,0.01004,8e-05,-5e-05,3e-05,1.4112126977640231e-05,1.2214000000000003e-06,0.00771,8e-05
22,2,-0.00103,0.00116,0.0003089217204847681,0.000641689,0.26181,0.00219,-0.00107,0.00092,0.00034009317843474124,0.0007777204999999999,0.28661000000000003,0.00199,-0.00057,0.00042,0.00011038869188307874,8.193640000000001e-05,0.08678000000000001,0.00099,-0.00118,0.00068,0.00025537572487735076,0.0004385175,0.19297999999999998,0.00186,-0.00029,0.00042,0.00011150763652846533,8.36059e-05,0.08831,0.00071,-0.00021,0.00013,4.6782878445490076e-05,1.47164e-05,0.03806,0.00034,-0.00029,0.0002,7.53148260438191e-05,3.81407e-05,0.062240000000000004,0.00049,-0.00043,0.0003,0.00011434713681504654,8.79181e-05,0.09305000000000001,0.00073
22,3,-0.00045,0.00059,0.00011549063823643455,8.2296e-05,0.07494,0.0010400000000000001,-0.00028,0.00023,5.93063633396702e-05,2.1701400000000002e-05,0.044449999999999996,0.00051,-0.00099,0.00059,0.00019764402458412298,0.0002410197,0.13586,0.00158,-0.00071,0.0004,9.856194524380667e-05,5.99382e-05,0.07252,0.00111,-0.00017,0.0001,3.239194729550621e-05,6.473800000000001e-06,0.02416,0.00027,-0.00013,8e-05,2.907654905631576e-05,5.2164000000000006e-06,0.022010000000000002,0.00021,-0.00024,0.0002,5.744111211864108e-05,2.0357800000000004e-05,0.04290000000000001,0.00044,-0.00055,0.00042,0.00010570148480408995,6.89362e-05,0.07493,0.00097
22,4,-0.00079,0.00055,0.00018721632320729448,0.00021759010000000002,0.14649,0.00134,-0.00093,0.00083,0.0002831717562835302,0.0004977962000000001,0.21742,0.00176,-0.00128,0.00127,0.0005683167603346942,0.0020050843,0.43346,0.00255,-0.00123,0.00127,0.0005738320303868891,0.0020441901,0.45624999999999993,0.0025,-0.00083,0.00071,0.00020769499284177786,0.0002677958,0.15458000000000002,0.0015400000000000001,-0.00084,0.0006,0.00016742766556300133,0.00017402279999999997,0.12727,0.0014399999999999999,-0.00041,0.00026,9.007925347834793e-05,5.03734e-05,0.06964,0.00067,-0.00059,0.00045,0.00013990872853252373,0.0001215182,0.10614000000000001,0.0010400000000000001
22,5,-0.00024,0.00016,4.68420573263128e-05,1.4887500000000001e-05,0.03678000000000001,0.0004,-0.00041,0.00025,7.907040974892492e-05,4.2420700000000005e-05,0.059300000000000005,0.00066,-0.00088,0.0008,0.0002617389272309354,0.0004648218,0.20268000000000003,0.00168,-0.00111,0.00103,0.0003062725485359989,0.0006364525,0.22852000000000003,0.0021400000000000004,-0.00024,0.00045,7.150091083722386e-05,3.4687499999999996e-05,0.053930000000000006,0.00069,-0.00019,0.00018,5.4766739229808636e-05,2.0350900000000002e-05,0.04213,0.00037,-0.00017,0.00015,4.7874344247632105e-05,1.55509e-05,0.035949999999999996,0.00031999999999999997,-0.00028,0.00013,5.0498765097226544e-05,1.73026e-05,0.035930000000000004,0.00041
22,6,-0.00079,0.0007,0.00016727852355491593,0.0001795052,0.12632,0.00149,-0.00066,0.00066,0.00015704038828966973,0.0001582047,0.11016000000000001,0.00132,-0.00109,0.00091,0.0003326714889549807,0.0007099501,0.25295999999999996,0.002,-0.00078,0.00082,0.00018926230009831297,0.0002297867,0.14749,0.0015999999999999999,-0.00028,0.00016,4.710380569870813e-05,1.42334e-05,0.03418,0.00043999999999999996,-0.00027,0.0001,3.810843126035918e-05,9.3162e-06,0.0281,0.00037,-0.0003,0.00029,6.047319253031918e-05,2.3459699999999995e-05,0.042730000000000004,0.00059,-0.00082,0.00064,0.00017350667831558938,0.00019312080000000002,0.13567,0.00146
23,1,-4e-05,3e-05,1.3318169142665862e-05,1.3264000000000003e-06,0.00872,7.000000000000001e-05,-7e-05,3e-05,1.5044286944586122e-05,1.6925000000000007e-06,0.009770000000000001,9.999999999999999e-05,-5e-05,4e-05,1.5601088282652322e-05,1.8201000000000004e-06,0.01097,9e-05,-0.00011,0.00014,2.3972046214968284e-05,4.2973e-06,0.015710000000000002,0.00025,-0.0001,6e-05,1.7058729948363057e-05,2.1761000000000002e-06,0.011640000000000001,0.00016,-0.00059,0.00055,5.979963424372614e-05,2.6741300000000004e-05,0.03381000000000001,0.00114,-9e-05,0.00011,1.768494901803509e-05,2.3388000000000004e-06,0.011940000000000001,0.0002,-4e-05,4e-05,1.3512547040463331e-05,1.3654000000000005e-06,0.008610000000000001,8e-05
23,2,-0.00125,0.00118,0.0003320742263945714,0.0007617679,0.29064,0.00243,-0.001,0.00095,0.0002196510168315504,0.00033328730000000003,0.18421,0.00195,-0.00056,0.00057,0.0001405252678257909,0.0001364147,0.12212,0.00113,-0.00128,0.00127,0.0005252458546956215,0.0019058012,0.47001000000000004,0.00255,-0.0012,0.00125,0.0004230117496701526,0.0012361102,0.37026,0.00245,-0.00098,0.00108,0.00022852526883147483,0.000360762,0.18783,0.00206,-0.00128,0.00127,0.00048465103342902073,0.0016225967999999999,0.39981,0.00255,-0.00118,0.00105,0.00027745769694825453,0.000531797,0.24188,0.00223
23,3,-0.00083,0.00079,0.00018882139181125747,0.0002574184,0.18639,0.00162,-0.0008,0.00048,0.00016949080495410164,0.00020740990000000001,0.16364,0.00128,-0.00015,0.00014,3.5843612303119275e-05,9.276e-06,0.03265,0.00029,-0.00017,0.00014,4.298424629283328e-05,1.3340000000000001e-05,0.038990000000000004,0.00031,-0.00045,0.00055,0.00012772389499150338,0.0001177827,0.11939000000000001,0.001,-0.0006,0.00048,0.00012278367572658323,0.00010884749999999999,0.0985,0.00108,-0.00065,0.00057,0.00012296166328217527,0.00010916329999999999,0.10584,0.00122,-0.00109,0.00112,0.00028295999247370576,0.0005780790999999999,0.25855,0.00221
23,4,-0.00031,0.00026,6.597084953867978e-05,3.43646e-05,0.06659999999999999,0.00057,-0.00028,0.00041,6.6403196447764e-05,3.481650000000001e-05,0.05981,0.00069,-0.00071,0.00055,0.00015006660122236247,0.0001778178,0.14395000000000002,0.00126,-0.00128,0.00127,0.0004510687803201791,0.0016065442,0.45132,0.00255,-0.00128,0.00127,0.0006996555636893202,0.0038652334,0.69346,0.00255,-0.00095,0.00106,0.0002699388275480874,0.0005753576000000001,0.23856000000000002,0.00201,-0.00056,0.00065,0.00015360213872624512,0.00018629520000000002,0.15056999999999998,0.00121,-0.00042,0.00044,0.00010179176202726894,8.181490000000001e-05,0.09338,0.0008600000000000001
23,5,-0.00078,0.00068,0.00019071271710534006,0.0002889703,0.16893999999999998,0.00146,-8e-05,7e-05,2.7095384274109197e-05,5.8329000000000005e-06,0.02429,0.00015000000000000001,-0.00085,0.00054,0.00016295427860691324,0.00021097230000000002,0.15156,0.00139,-0.00128,0.00122,0.00034483029089019894,0.0009447234999999999,0.32439,0.0025,-0.00128,0.00127,0.0005061972019877161,0.0020357919,0.47312,0.00255,-0.00068,0.00071,0.0001534205751391358,0.00018700840000000004,0.1339,0.0013900000000000002,-0.00031,0.00032,8.426276740679101e-05,5.641120000000001e-05,0.08086,0.00063,-0.00072,0.00048,8.121063213369497e-05,5.2398600000000003e-05,0.07563,0.0012000000000000001
23,6,-0.00055,0.0005,0.00011973236471747882,9.840119999999998e-05,0.09084,0.0010500000000000002,-0.00071,0.00112,0.00010278621418996736,7.25182e-05,0.034890000000000004,0.00183,-0.0002,0.00025,4.339822781123893e-05,1.29277e-05,0.03344,0.00045,-0.00041,0.00066,0.00010794137448791515,7.997479999999999e-05,0.08255,0.00107,-0.00128,0.00115,0.00038491297490698685,0.0010169565,0.29916,0.00243,-0.0012,0.00127,0.0003280494154813681,0.0007386790999999999,0.26376,0.00247,-0.00071,0.00093,0.0001831904507848085,0.0002303472,0.14919000000000002,0.00164,-0.00128,0.00111,0.0003733517584634948,0.0009567835,0.29410000000000003,0.00239
24,1,-4e-05,3e-05,1.394881152878986e-05,1.3328000000000004e-06,0.00936,7.000000000000001e-05,-8e-05,4e-05,2.0990439255669822e-05,3.0181000000000004e-06,0.016130000000000005,0.00012000000000000002,-0.00014,9e-05,3.626162033733605e-05,9.0071e-06,0.03007,0.00023,-0.00023,0.00017,3.4960039753439436e-05,8.3721e-06,0.02359,0.0004,-5e-05,4e-05,1.6318454914694878e-05,1.8241000000000005e-06,0.010950000000000001,9e-05,-5e-05,4e-05,1.5091932393092366e-05,1.5602000000000003e-06,0.00979,9e-05,-5e-05,3e-05,1.5067730298567625e-05,1.5552000000000004e-06,0.010470000000000002,8e-05,-4e-05,3e-05,1.4778164993799107e-05,1.4960000000000002e-06,0.00948,7.000000000000001e-05
24,2,-0.00103,0.00096,0.00025472440049779824,0.00047197000000000005,0.21157,0.00199,-0.00034,0.00018,5.970680356610448e-05,2.59311e-05,0.05065,0.0005200000000000001,-0.00048,0.00022,7.68650428277276e-05,4.29765e-05,0.06878000000000001,0.0007,-0.00077,0.00044,0.0001258347437436163,0.0001151793,0.10638,0.00121,-0.00013,0.0001,3.4542255943945734e-05,8.6791e-06,0.02918,0.00023,-0.00033,0.00047,9.432086527124028e-05,6.471259999999999e-05,0.07803,0.0007999999999999999,-0.00072,0.00078,0.00020913141791408757,0.00031813530000000004,0.18111,0.0015,-0.00096,0.00082,0.0001645723330051615,0.00019700940000000003,0.13967000000000002,0.00178
24,3,-0.00053,0.00033,0.00010845615357333973,7.93279e-05,0.08392,0.00086,-0.00085,0.00067,0.00015039021012848986,0.0001525305,0.12184,0.00152,-0.00017,0.00013,3.787074539876594e-05,9.6722e-06,0.030199999999999998,0.00030000000000000003,-0.00011,0.0001,2.4254605413168526e-05,3.9674e-06,0.01854,0.00021,-0.00022,0.00042,7.160080700288144e-05,3.45743e-05,0.049269999999999994,0.00064,-9e-05,0.00014,2.975283712061803e-05,5.9700000000000004e-06,0.022690000000000002,0.00023,-0.0003,0.00029,7.096030417552674e-05,3.39585e-05,0.05508,0.00059,-0.0009,0.00084,0.00020529233705527764,0.0002842255,0.14941000000000002,0.00174
24,4,-0.00011,0.00014,3.344038220929412e-05,8.5435e-06,0.0288,0.00025,-0.00014,0.00018,4.290589971515054e-05,1.40646e-05,0.03773000000000001,0.00031999999999999997,-0.00024,0.00025,6.943470321439513e-05,3.68338e-05,0.06497,0.00049,-0.00098,0.00089,0.00024972267340504903,0.0004764412,0.24498,0.00187,-0.00126,0.00127,0.00047173210407017185,0.0017001382,0.44452,0.00253,-0.00046,0.00033,8.760834727974843e-05,5.86387e-05,0.08393,0.00079,-0.00015,0.00019,3.901754874345239e-05,1.16309e-05,0.0354,0.00034,-0.00012,0.00015,3.3575343109512674e-05,8.612600000000001e-06,0.02884,0.00027
24,5,-0.00027,0.00022,4.864662236728872e-05,1.87166e-05,0.041690000000000005,0.00049,-0.00029,0.00017,5.037801221068772e-05,2.00726e-05,0.0456,0.00046,-0.00046,0.00028,9.410551401679482e-05,7.004090000000001e-05,0.08724,0.00074,-0.00057,0.0007,0.00019735326713678512,0.00030804220000000003,0.18527,0.0012699999999999999,-0.00098,0.00116,0.0003510264917729328,0.0009745438000000001,0.32658000000000004,0.00214,-0.00023,0.00026,7.800133245309496e-05,4.812000000000001e-05,0.0712,0.00049,-0.00016,0.0001,3.446518947610773e-05,9.3947e-06,0.03075,0.00026000000000000003,-8e-05,6e-05,2.404846120928155e-05,4.574000000000001e-06,0.019790000000000002,0.00014000000000000001
24,6,-0.00047,0.00067,7.926204545139181e-05,4.630810000000001e-05,0.05605,0.00114,-9e-05,0.0001,2.747132543836226e-05,5.5627e-06,0.021540000000000004,0.00019,-0.00013,0.00013,2.6442895061371264e-05,5.154e-06,0.021590000000000005,0.00026,-0.00019,0.00023,4.351687749657577e-05,1.39586e-05,0.03914,0.00042,-0.00083,0.00076,0.00019465730543222068,0.000279298,0.16991,0.00159,-0.00119,0.00107,0.00030413672139211335,0.0006818111999999999,0.24441000000000002,0.00226,-0.00056,0.00038,0.00011532480247750884,9.803290000000001e-05,0.09862000000000001,0.00094,-0.00102,0.00126,0.0003317399033148736,0.0008111886,0.28462,0.00228
25,1,-6e-05,5e-05,1.621757048161492e-05,1.7548000000000003e-06,0.01083,0.00011,-0.00011,7e-05,2.540971226161774e-05,4.3078e-06,0.01949,0.00017999999999999998,-0.00013,0.00011,3.256104762660479e-05,7.073800000000001e-06,0.02602,0.00023999999999999998,-0.00016,0.00015,3.0870173726419915e-05,6.358200000000001e-06,0.02161,0.00031,-0.00012,0.00015,3.2710075523719836e-05,7.138700000000001e-06,0.02286,0.00027,-0.0002,0.00036,4.9106830638392555e-05,1.6089400000000002e-05,0.03028,0.0005600000000000001,-0.0001,0.00014,2.5013185971044712e-05,4.1744e-06,0.016210000000000002,0.00023999999999999998,-0.00023,0.00022,3.231129499374325e-05,6.965699999999999e-06,0.01833,0.00045
25,2,-0.00111,0.00114,0.00033868367318578755,0.0007819551,0.26725,0.0022500000000000003,-0.00048,0.00049,0.0001470214768479092,0.0001473516,0.11422,0.0009699999999999999,-0.00092,0.00083,0.0002631291262272014,0.00047198819999999997,0.21014,0.00175,-0.00119,0.00127,0.000491490892731757,0.0016467370000000001,0.40415999999999996,0.0024600000000000004,-0.00096,0.00104,0.00028188483151237256,0.0005416724000000001,0.23598,0.002,-0.00108,0.00121,0.00037131642007843244,0.0009398999,0.31017,0.00229,-0.00128,0.00119,0.0003927694367233021,0.0010516438,0.31435,0.00247,-0.00128,0.00121,0.0004172886033609583,0.0011870427,0.33639,0.00249
25,3,-0.00085,0.00109,0.0002758236335162054,0.0005002173000000001,0.22034,0.0019399999999999999,-0.0007,0.0007,0.00023221702187210127,0.0003545552,0.17639,0.0014,-0.00036,0.00029,9.195254190057551e-05,5.559340000000001e-05,0.07344,0.00065,-0.00078,0.00087,0.0002275768536881511,0.0003405273,0.17449,0.00165,-0.00128,0.00127,0.00046808395139262006,0.0014405995,0.35712,0.00255,-0.00076,0.00102,0.0002526735521465802,0.00041977379999999997,0.18815,0.0017800000000000001,-0.0007,0.00075,0.00023059793330406367,0.00034962830000000004,0.17043,0.00145,-0.00117,0.00122,0.00033381593707896824,0.0007326725,0.26243,0.0023899999999999998
25,4,-0.00055,0.00045,0.00014460548491899357,0.0001330969,0.09692,0.001,-0.00039,0.00036,0.00011744357338776028,8.77924e-05,0.08395,0.00075,-0.00083,0.00079,0.00020254310103507526,0.0002611159,0.15375,0.00162,-0.00128,0.00127,0.0005906132991459343,0.0022202652,0.44755,0.00255,-0.00128,0.00127,0.0005813589194673995,0.0021512312,0.42121,0.00255,-0.00128,0.00127,0.0003993006061565442,0.0010148417999999999,0.29012000000000004,0.00255,-0.0009,0.00062,0.00019249460057107662,0.0002358498,0.1483,0.00152,-0.00079,0.00061,0.00017452910497649487,0.00019388050000000002,0.12094999999999999,0.0014
25,5,-0.00106,0.001,0.0002987454007024596,0.0005834195,0.21833999999999998,0.00206,-0.00095,0.00074,0.000278869716535646,0.0005083715,0.21361,0.00169,-0.00049,0.00048,0.0001344306232731659,0.000118134,0.10379,0.0009699999999999999,-0.00116,0.00112,0.00041126697311572524,0.0011056716000000001,0.31175,0.00228,-0.00128,0.00127,0.00041753710518382893,0.0011396425000000001,0.31037000000000003,0.00255,-0.00058,0.00049,0.000162098399379932,0.0001717655,0.12507000000000001,0.00107,-0.00028,0.0003,7.440416525471539e-05,3.61887e-05,0.057370000000000004,0.00058,-0.00042,0.00025,7.350706748657382e-05,3.5321300000000003e-05,0.05409,0.00067
25,6,-0.00104,0.00127,0.0003526296146468155,0.0007947058000000001,0.25462,0.00231,-0.00089,0.0009,0.00018943128615244754,0.00022933600000000001,0.1134,0.00179,-0.00046,0.00036,0.00010172968190382449,6.614000000000001e-05,0.07714,0.00082,-0.0005,0.00057,0.00016623557663112055,0.0001766106,0.12211,0.00107,-0.00128,0.00116,0.0004535121379531611,0.0013144578,0.33741,0.0024400000000000003,-0.00124,0.00126,0.00043592447944102954,0.0012144827,0.32482,0.0025,-0.00093,0.00074,0.00023181894882689206,0.0003434525,0.16964,0.00167,-0.00128,0.00091,0.000305044122641201,0.0005946948,0.21092,0.00219
26,1,-5e-05,3e-05,1.5440914395419505e-05,2.0788000000000003e-06,0.01552,8e-05,-9e-05,5e-05,2.1123941320024038e-05,3.8906000000000005e-06,0.02234,0.00014000000000000001,-0.00013,0.00011,3.519871334019416e-05,1.0802400000000002e-05,0.04166000000000001,0.00023999999999999998,-0.00016,0.00017,4.072248651987136e-05,1.4458900000000001e-05,0.04945000000000001,0.00033,-0.00013,0.00014,3.302798168618772e-05,9.511100000000001e-06,0.034730000000000004,0.00026999999999999995,-0.0001,0.00013,2.398340214381646e-05,5.015200000000001e-06,0.02119,0.00023,-6e-05,4e-05,1.4046520451049391e-05,1.7203000000000003e-06,0.012450000000000001,0.0001,-4e-05,2e-05,1.3869445170857084e-05,1.6772000000000004e-06,0.012300000000000002,6.000000000000001e-05
26,2,-0.00089,0.00102,0.0002165886327537751,0.00028404389999999997,0.15441000000000002,0.00191,-0.00048,0.00033,0.00010612466377304197,6.81941e-05,0.07768,0.00081,-0.00103,0.00078,0.00023373988803820531,0.0003308109,0.16137,0.00181,-0.00112,0.00118,0.0003103722758694897,0.0005832839,0.23507,0.0023,-0.00094,0.00119,0.000272504759464187,0.0004496373,0.19942000000000001,0.00213,-0.00116,0.00127,0.0003972606654749595,0.0009555760999999999,0.30142,0.00243,-0.00128,0.00127,0.000421780485406249,0.0010771771,0.31836,0.00255,-0.00082,0.00066,0.00021076424969922967,0.00026897259999999996,0.15266,0.00148
26,3,-0.00121,0.00127,0.00037268753250509066,0.0008917122999999999,0.30345,0.00248,-0.00111,0.00114,0.00020167557458248764,0.0002611209,0.14635,0.0022500000000000003,-0.00128,0.00127,0.00023973947438066847,0.0003689896,0.14665,0.00255,-0.00122,0.001,0.00019763354647323327,0.0002507589,0.15953,0.0022199999999999998,-0.00128,0.00117,0.00036218190469324485,0.0008421482000000001,0.30456,0.00245,-0.00103,0.00087,0.00027015522825224475,0.00046855629999999996,0.22979,0.0019000000000000002,-0.00068,0.00102,0.0001933855606757703,0.000240095,0.15657,0.0017000000000000001,-0.00088,0.00076,0.00025552099974055,0.00041916809999999996,0.20292,0.00164
26,4,-0.00029,0.00034,8.593568178070411e-05,4.60008e-05,0.06983,0.00063,-0.00053,0.00055,0.00013076954639950302,0.00010652010000000001,0.10597000000000001,0.00108,-0.00128,0.00098,0.0002471012552415417,0.0003803367,0.19385,0.00226,-0.00128,0.00121,0.00043405483073321384,0.001173566,0.36073,0.00249,-0.00128,0.00127,0.0005468576882451291,0.0018628032000000002,0.44674,0.00255,-0.00128,0.00127,0.0004001870448855204,0.0009975723,0.3347,0.00255,-0.00056,0.00056,0.00015683030863188096,0.0001532069,0.1286,0.00112,-0.00034,0.00035,9.572521477782418e-05,5.7078300000000005e-05,0.07934000000000001,0.0006900000000000001
26,5,-0.00037,0.00021,6.2298280050184e-05,2.3379600000000002e-05,0.047580000000000004,0.00058,-0.00059,0.00049,0.00012447839377951507,9.33411e-05,0.09659000000000001,0.00108,-0.00084,0.00095,0.00026331743652321417,0.0004176805,0.19833999999999996,0.00179,-0.00123,0.00127,0.00038188813259478854,0.0008785314,0.28548,0.0025,-0.00126,0.00116,0.0003780142250181472,0.0008607979999999999,0.29004,0.0024200000000000003,-0.00076,0.0007,0.0001700789793882476,0.00017425539999999998,0.12797000000000003,0.00146,-0.00034,0.00033,7.425168963070571e-05,3.32122e-05,0.05562,0.00067,-0.00019,0.00032,4.960618481981046e-05,1.4823700000000002e-05,0.03637,0.00051
26,6,-0.00113,0.00125,0.0003139339290717419,0.0006127134,0.25164,0.00238,-0.00055,0.00049,0.00011392997236824087,8.06969e-05,0.08962999999999999,0.0010400000000000001,-0.00031,0.00026,7.37534333025815e-05,3.38178e-05,0.06072000000000001,0.00057,-0.00046,0.00075,9.943608087848601e-05,6.14708e-05,0.0804,0.0012100000000000001,-0.00078,0.00088,0.00020053900346137435,0.0002500222,0.1683,0.00166,-0.00075,0.00104,0.00021395980946042035,0.0002846068,0.16777999999999998,0.00179,-0.00047,0.00067,0.0001495823363295443,0.0001391046,0.1154,0.00114,-0.00097,0.00105,0.0002767856760006149,0.00047628629999999997,0.22940000000000002,0.00202
27,1,-8e-05,0.00013,1.89308922151427e-05,2.5685000000000005e-06,0.01305,0.00021,-0.00084,0.00032,4.333005965889334e-05,1.3456e-05,0.015450000000000002,0.00116,-0.00014,7e-05,2.3139581069741714e-05,3.8375e-06,0.018410000000000003,0.00020999999999999998,-6e-05,5e-05,1.6663178091711435e-05,1.9900000000000004e-06,0.01348,0.00011,-0.00112,0.0012,8.62241441924417e-05,5.328380000000001e-05,0.023170000000000003,0.00232,-0.00112,0.00039,7.119188995972406e-05,3.6324399999999994e-05,0.055600000000000004,0.0015099999999999998,-7e-05,4e-05,1.7359132253159116e-05,2.1597000000000003e-06,0.013740000000000002,0.00010999999999999999,-0.00034,0.00049,4.758519197529752e-05,1.6228600000000002e-05,0.02445,0.00083
27,2,-0.00092,0.00076,0.00020257709965397733,0.0002743766,0.16139,0.00168,-0.0003,0.00031,9.29089982849314e-05,5.7714100000000004e-05,0.07127,0.00061,-0.00062,0.00051,0.00014786070443172645,0.0001461746,0.11460000000000001,0.00113,-0.00128,0.00121,0.0003666124199577016,0.0008986296,0.2991,0.00249,-0.00064,0.00096,0.00021967057162008597,0.00032263400000000003,0.17233,0.0016,-0.00128,0.00127,0.0002956230966209492,0.0005843097,0.21795,0.00255,-0.00128,0.00127,0.00047818091214961976,0.0015288006,0.39998,0.00255,-0.00049,0.00039,0.00010564064632586746,7.46154e-05,0.08016000000000001,0.0008799999999999999
27,3,-0.00038,0.00044,9.154987504786891e-05,5.57697e-05,0.06783,0.00082,-0.00035,0.00016,5.0866699323724665e-05,1.72167e-05,0.03182,0.00051,-0.00011,0.0001,3.178938617903696e-05,6.7243e-06,0.02354,0.00021,-0.00017,0.00018,4.6414255762234965e-05,1.43346e-05,0.03641,0.00035000000000000005,-0.00062,0.00099,0.00017390530988999506,0.0002012373,0.12404,0.0016099999999999999,-0.00047,0.00043,8.819347123171286e-05,5.1755399999999996e-05,0.06871999999999999,0.0009,-0.00062,0.0003,8.981303426639022e-05,5.36737e-05,0.06722,0.00092,-0.00043,0.00061,0.00014558062393162961,0.00014102300000000002,0.10980999999999999,0.00104
27,4,-0.00016,0.00017,4.132883061138407e-05,1.2484300000000002e-05,0.03203,0.00033,-0.00017,0.00022,5.22902745674424e-05,1.9984800000000002e-05,0.041400000000000006,0.00039000000000000005,-0.00029,0.00043,9.218950839994295e-05,6.21185e-05,0.07487,0.0007199999999999999,-0.00128,0.00127,0.00042917233183079994,0.0013462366,0.35658999999999996,0.00255,-0.00128,0.00127,0.0005286137476317211,0.0020423721,0.43950999999999996,0.00255,-0.0012,0.00119,0.0004028141701977899,0.0011859529,0.36976000000000003,0.0023899999999999998,-0.00055,0.0005,0.00012180799247048344,0.000108445,0.09377,0.0010500000000000002,-0.00055,0.00063,0.00013497104983416843,0.00013314939999999997,0.09494,0.00118
27,5,-0.00055,0.00106,0.00010370359777636388,7.96366e-05,0.08237,0.0016099999999999999,-0.00039,0.00028,9.37578445963993e-05,6.50939e-05,0.08457999999999999,0.00067,-0.00041,0.0003,0.00010931133021899907,8.84821e-05,0.0964,0.0007099999999999999,-0.00096,0.00104,0.0002730897807667212,0.0005522503,0.24259,0.002,-0.00118,0.00127,0.0003888836148533617,0.0011198616,0.36519,0.00245,-0.00085,0.00046,0.00011098831687212227,9.121779999999999e-05,0.08843999999999999,0.00131,-0.00015,0.00015,4.594230595028612e-05,1.56297e-05,0.03931,0.0003,-0.00021,0.00035,3.570094860452186e-05,9.4381e-06,0.02986,0.00056
27,6,-0.00035,0.00048,0.00010326114947007565,7.37657e-05,0.09137999999999999,0.00083,-0.00038,0.00025,5.982471746602851e-05,2.4759500000000002e-05,0.040330000000000005,0.00063,-0.00017,0.00015,3.9830879831442846e-05,1.0975400000000002e-05,0.031810000000000005,0.00031999999999999997,-0.00021,0.00029,6.107486200090988e-05,2.58051e-05,0.05456,0.0005,-0.001,0.001,0.00027224434737502376,0.0005127413,0.23993,0.002,-0.00119,0.00094,0.00031988359313051825,0.0007078879000000001,0.30425,0.00213,-0.00062,0.00045,0.00012116430681288301,0.00010156170000000001,0.1134,0.00107,-0.00107,0.00112,0.00033413110662605216,0.0007723503999999999,0.30014,0.00219
28,1,-8e-05,8e-05,2.1324186924997322e-05,2.3791000000000002e-06,0.01263,0.00016,-0.00011,9e-05,3.0000318550805953e-05,4.7089e-06,0.01838,0.0002,-0.00028,0.0004,7.479405976510964e-05,2.92686e-05,0.043410000000000004,0.00068,-0.00023,0.00017,4.3288026185184205e-05,9.804e-06,0.0258,0.0004,-0.00013,0.00024,3.78429779297739e-05,7.4927e-06,0.02268,0.00037,-0.00029,0.00053,5.3381273847235e-05,1.4908900000000002e-05,0.02862,0.00082,-9e-05,6e-05,2.2638462845343204e-05,2.6814000000000003e-06,0.01327,0.00015000000000000001,-7e-05,6e-05,2.1990058916053024e-05,2.5300000000000003e-06,0.01263,0.00013
28,2,-0.00059,0.00086,0.00012288950376268472,8.49931e-05,0.08005999999999999,0.00145,-0.00027,0.00019,6.233877570698196e-05,2.18711e-05,0.04477,0.00046,-0.00046,0.00047,0.000138678464146062,0.0001082361,0.09786,0.00093,-0.00053,0.00042,0.000138432308039079,0.0001078522,0.10289000000000001,0.00095,-0.00027,0.00032,8.991911788487431e-05,4.55049e-05,0.07085999999999999,0.00059,-0.00045,0.00057,0.00010198474599207213,5.85362e-05,0.07414000000000001,0.00102,-0.00076,0.00101,0.00024084240483329352,0.00032645250000000003,0.17298,0.00177,-0.00028,0.00041,8.576705613203153e-05,4.1399499999999996e-05,0.05688,0.00069
28,3,-0.0003,0.00033,8.61641045647889e-05,4.0744299999999995e-05,0.05488,0.0006299999999999999,-0.00091,0.00058,0.00015612740088185095,0.0001337742,0.10293,0.00149,-0.0003,0.0004,7.139884585554898e-05,2.79767e-05,0.050699999999999995,0.0007,-0.00025,0.00012,4.511283230394652e-05,1.1169000000000001e-05,0.03055,0.00037,-0.00025,0.00018,4.948587718547932e-05,1.3439299999999999e-05,0.033530000000000004,0.00043000000000000004,-0.00028,0.00039,6.676524841937959e-05,2.44633e-05,0.04873,0.00067,-0.00024,0.0003,5.602282437821179e-05,1.72244e-05,0.03875000000000001,0.00054,-0.00057,0.00066,0.0001397149325973081,0.0001071272,0.0884,0.00123
28,4,-0.00019,0.0002,4.6765798872496757e-05,1.2538300000000002e-05,0.03313,0.00039000000000000005,-0.0003,0.00028,8.066875545989376e-05,3.73072e-05,0.059039999999999995,0.00058,-0.00039,0.00055,0.0001420542762749117,0.00011568860000000001,0.10459,0.0009400000000000001,-0.00055,0.00079,0.00015030604281329616,0.0001295194,0.11006,0.00134,-0.00119,0.00125,0.00041787385562937353,0.0010010881999999999,0.31605,0.0024400000000000003,-0.00107,0.00104,0.00031225621225150263,0.0005589900999999999,0.21849000000000002,0.00211,-0.00039,0.00046,0.00011856289596672884,8.05897e-05,0.08138000000000001,0.0008500000000000001,-0.00097,0.00087,0.00017070047864631773,0.00016705190000000002,0.10890000000000001,0.00184
28,5,-0.00046,0.00033,9.628385901175958e-05,4.86242e-05,0.06412,0.00079,-0.00055,0.00044,0.00014232376254222435,0.000106243,0.095,0.00099,-0.00052,0.00059,0.00016065802486427106,0.0001353787,0.11479,0.0011099999999999999,-0.00042,0.00044,0.00011987831453402902,7.53749e-05,0.09347,0.0008600000000000001,-0.0009,0.00123,0.0002614904117981088,0.0003586386,0.19687,0.00213,-0.00083,0.00066,0.00013990477491440813,0.00010266220000000001,0.09798000000000001,0.00149,-0.00029,0.00038,8.690538119829063e-05,3.9613099999999995e-05,0.05660000000000001,0.00067,-0.00064,0.00037,8.174736128595474e-05,3.50504e-05,0.056889999999999996,0.00101
28,6,-0.00094,0.001,0.00020856175604155015,0.00025742120000000004,0.13848,0.0019399999999999999,-0.0003,0.0004,6.457598200447249e-05,2.46784e-05,0.042080000000000006,0.0007,-0.00016,0.00014,3.7904961105073967e-05,8.502900000000001e-06,0.02691,0.00030000000000000003,-0.00021,0.00014,4.477573571652127e-05,1.18648e-05,0.030969999999999998,0.00035,-0.00034,0.00024,6.898102064965597e-05,2.81601e-05,0.049,0.00058,-0.00089,0.00112,0.00023111412278188187,0.0003161025,0.16119,0.0020099999999999996,-0.00044,0.0005,0.00011501303980025933,7.82833e-05,0.07984,0.0009400000000000001,-0.00095,0.00121,0.00027239158962917424,0.0004390989,0.19071,0.00216
29,1,-6e-05,3e-05,1.6962650681002068e-05,1.8176000000000004e-06,0.01207,9e-05,-7e-05,4e-05,1.8863128980985396e-05,2.2477000000000005e-06,0.013560000000000001,0.00010999999999999999,-9e-05,7e-05,2.7990307917986425e-05,4.949100000000001e-06,0.01922,0.00015999999999999999,-0.00013,0.00014,3.7448925695893214e-05,8.859100000000001e-06,0.02744,0.00026999999999999995,-6e-05,5e-05,1.8962733087853015e-05,2.2715e-06,0.012810000000000002,0.00011,-4e-05,2e-05,1.4519914760348385e-05,1.3318000000000003e-06,0.008830000000000001,6.000000000000001e-05,-4e-05,3e-05,1.5062005767159346e-05,1.4331000000000003e-06,0.00918,7.000000000000001e-05,-6e-05,3e-05,1.6971047802394805e-05,1.8194000000000003e-06,0.01105,9e-05
29,2,-0.00031,0.00032,6.906832440802805e-05,3.0817e-05,0.05852,0.00063,-0.0002,0.0001,3.3691598938152803e-05,7.3329000000000006e-06,0.027860000000000003,0.00030000000000000003,-0.00028,0.00032,4.9828498441814845e-05,1.60394e-05,0.03987,0.0006000000000000001,-0.0004,0.00049,0.00010383207149627429,6.96459e-05,0.08471000000000001,0.00089,-0.00035,0.0003,8.745365867052497e-05,4.9407e-05,0.07504,0.00065,-0.00037,0.00078,0.00012157015836780298,9.547430000000001e-05,0.10256000000000001,0.00115,-0.00038,0.00045,7.930278613355828e-05,4.06265e-05,0.06694,0.00083,-0.00045,0.00065,0.00011466177210135947,8.49317e-05,0.09223999999999999,0.0010999999999999998
29,3,-0.00062,0.00035,0.00011380624429629186,9.707420000000001e-05,0.09547,0.0009699999999999999,-0.00015,7e-05,3.0918559230176765e-05,7.1649e-06,0.02696,0.00021999999999999998,-0.00017,9e-05,3.489161718761023e-05,9.1246e-06,0.03161,0.00026000000000000003,-0.00015,0.00027,4.567571397615483e-05,1.5636600000000002e-05,0.04191,0.00042,-0.00024,0.00039,6.720663028379562e-05,3.3852899999999996e-05,0.06287999999999999,0.00063,-0.00018,0.00022,4.9612776765791884e-05,1.84484e-05,0.044950000000000004,0.0004,-0.00013,0.00026,3.4203409900660226e-05,8.768200000000002e-06,0.02775,0.00038999999999999994,-0.00047,0.00033,9.624518389829096e-05,6.94272e-05,0.08456,0.0007999999999999999
29,4,-0.00021,0.00019,5.543450948683181e-05,2.1692200000000002e-05,0.048900000000000006,0.0004,-0.00034,0.00028,6.529326218236115e-05,3.0094e-05,0.058249999999999996,0.00062,-0.0004,0.00041,8.828094921999529e-05,5.50145e-05,0.0794,0.00081,-0.00123,0.0012,0.0003380723125473626,0.0008067935,0.30085,0.00243,-0.00128,0.00127,0.0004351050175041203,0.0013363843,0.40123,0.00255,-0.00077,0.00092,0.00019330760022382101,0.0002637795,0.18116,0.00169,-0.0004,0.00045,0.00011698083697951465,9.6599e-05,0.10815,0.0008500000000000001,-0.00026,0.00031,8.155530568252179e-05,4.69513e-05,0.07319,0.00057
29,5,-0.00029,0.00023,6.124876856956181e-05,2.7239e-05,0.054990000000000004,0.0005200000000000001,-0.0002,0.00024,6.989200160368625e-05,3.5469199999999996e-05,0.06707,0.00044,-0.00034,0.00049,0.00010887405621031295,8.60687e-05,0.101,0.00083,-0.00128,0.00123,0.0003850309012687502,0.0010764345,0.35182,0.00251,-0.00108,0.00114,0.00033308675174720676,0.0008055846,0.31604,0.0022199999999999998,-0.00032,0.00047,0.00010603683035929391,8.16413e-05,0.09681000000000001,0.00079,-0.00022,0.00027,5.779554501950299e-05,2.4254100000000002e-05,0.05321000000000001,0.00049,-0.00026,0.00025,5.352689763232956e-05,2.08037e-05,0.046189999999999995,0.00051
29,6,-0.00069,0.00032,0.00010330130002419206,7.79208e-05,0.07964,0.00101,-0.00012,7e-05,2.8480413197635197e-05,5.9229000000000005e-06,0.024870000000000003,0.00019,-0.00011,9e-05,3.260971620233934e-05,7.7649e-06,0.028480000000000005,0.0002,-0.00026,0.00035,8.293746014474755e-05,5.02277e-05,0.07241,0.00061,-0.00073,0.00083,0.00022540942389630492,0.0003710103,0.20434999999999998,0.00156,-0.00028,0.00037,8.502533174982231e-05,5.27884e-05,0.07797000000000001,0.00065,-0.00044,0.00032,8.821893286045207e-05,5.6828400000000006e-05,0.07450999999999999,0.00076,-0.00099,0.00056,0.00017186579835182976,0.00021568540000000002,0.14807,0.00155
30,1,-0.00017,0.00013,3.094088134550743e-05,7.703699999999999e-06,0.027530000000000002,0.00030000000000000003,-0.00014,8e-05,3.249819564635054e-05,8.4987e-06,0.03291,0.00021999999999999998,-0.00025,0.0002,6.468091855641378e-05,3.36656e-05,0.07189999999999999,0.00045,-0.00029,0.00029,8.846726549828836e-05,6.29795e-05,0.09695999999999999,0.00058,-0.00051,0.00052,0.00014524397441508487,0.000169758,0.15478,0.00103,-0.00071,0.00068,8.84692320555802e-05,6.298230000000001e-05,0.06703999999999999,0.0013900000000000002,-0.00011,8e-05,2.6922650851428593e-05,5.832700000000001e-06,0.02572,0.00019,-0.0002,0.00012,3.527502060118954e-05,1.00131e-05,0.032600000000000004,0.00032
30,2,-0.00027,0.00032,6.13231627741319e-05,2.7372900000000004e-05,0.05537,0.00059,-0.00013,0.00011,3.959594662174607e-05,1.14123e-05,0.03633,0.00023999999999999998,-0.00035,0.00027,8.255177762144188e-05,4.9604900000000003e-05,0.07515,0.00062,-0.00091,0.00081,0.00020736305537827668,0.0003129929,0.18251,0.00172,-0.00087,0.00086,0.00020459077265624123,0.0003046799,0.18336000000000002,0.00173,-0.001,0.00111,0.0002633874514493496,0.0005049657,0.23721,0.00211,-0.00118,0.00089,0.0002177635200855223,0.0003451771,0.19572,0.00207,-0.00027,0.00024,7.251568466614166e-05,3.8276800000000006e-05,0.06757,0.00051
30,3,-0.00083,0.00088,0.00013061388376055667,0.0001276087,0.11392000000000001,0.0017100000000000001,-0.00014,0.00019,3.801825483284035e-05,1.0811500000000001e-05,0.034519999999999995,0.00033,-0.00029,0.0002,6.600700821647567e-05,3.25898e-05,0.0666,0.00049,-0.00035,0.00019,5.931009328752934e-05,2.6312300000000002e-05,0.057620000000000005,0.00054,-0.00024,0.00019,5.861628599593511e-05,2.5700300000000002e-05,0.05349,0.00043000000000000004,-0.00089,0.00085,0.00021199103880767238,0.0003361527,0.16948999999999997,0.0017399999999999998,-0.00014,0.00011,3.441411848067843e-05,8.8588e-06,0.03045,0.00025,-0.00045,0.00042,6.119662358307034e-05,2.80128e-05,0.053989999999999996,0.00087
30,4,-0.00011,0.00046,4.115868889697378e-05,1.19616e-05,0.030690000000000002,0.00057,-0.00018,0.00021,4.7062710711935685e-05,1.56394e-05,0.04739,0.00039000000000000005,-0.00039,0.00045,8.598471982637282e-05,5.2204600000000005e-05,0.08835,0.00084,-0.00109,0.00127,0.0003256301506973727,0.0007487131000000001,0.29651000000000005,0.00236,-0.00128,0.00127,0.00041463984402722074,0.0012139709,0.40348,0.00255,-0.00095,0.00074,0.00019686902743709038,0.0002736661,0.16510999999999998,0.00169,-0.00023,0.00021,5.417637877336251e-05,2.07246e-05,0.05074000000000001,0.00044,-0.00012,0.00023,3.593925542808447e-05,9.120200000000001e-06,0.03194,0.00035
30,5,-0.00013,0.00019,3.7639293536283154e-05,9.492e-06,0.03136,0.00031999999999999997,-0.0002,0.00016,5.1919570405048494e-05,1.80608e-05,0.043429999999999996,0.00036,-0.00039,0.00032,9.179828633005269e-05,5.64604e-05,0.0766,0.00071,-0.00111,0.00125,0.0003014077913996524,0.0006086726,0.25865,0.00236,-0.00097,0.00091,0.00033099492713792983,0.0007340362,0.28495000000000004,0.0018800000000000002,-0.0011,0.00091,0.00029760080444442635,0.0005933938000000001,0.23820000000000002,0.00201,-0.00029,0.00026,6.312378268369701e-05,2.66969e-05,0.045939999999999995,0.0005499999999999999,-0.0001,0.00013,3.1068773015947587e-05,6.4673e-06,0.02501,0.00023
30,6,-0.00086,0.00064,9.24070116062154e-05,6.167760000000001e-05,0.07586000000000001,0.0015,-0.00021,0.00013,3.908637492037951e-05,1.10349e-05,0.03401,0.00034,-0.00015,0.00016,4.257706322853089e-05,1.30939e-05,0.04005,0.00031,-0.00047,0.00095,0.00012736767747945172,0.00011717530000000001,0.10866,0.00142,-0.00092,0.0012,0.0002681193702015587,0.000519247,0.24525,0.00212,-0.00102,0.00087,0.00027352306880395555,0.0005403878000000001,0.25139,0.0018900000000000002,-0.00045,0.0005,0.00010028679627099023,7.26449e-05,0.09128,0.00095,-0.0011,0.00087,0.0002542539367987821,0.0004669313,0.23406,0.00197
31,1,-4e-05,2e-05,1.4073546194336381e-05,1.3714000000000003e-06,0.010610000000000001,6.000000000000001e-05,-9e-05,4e-05,2.043468975417742e-05,2.8913e-06,0.01946,0.00013000000000000002,-0.00014,6e-05,2.4504034730672793e-05,4.1575000000000004e-06,0.023860000000000003,0.00019999999999999998,-0.00012,4e-05,2.0378424494160783e-05,2.8754000000000005e-06,0.018430000000000002,0.00016,-0.00013,0.00026,3.3525083946363046e-05,7.782100000000001e-06,0.025870000000000004,0.00038999999999999994,-0.00018,0.00027,3.200456712064828e-05,7.0922000000000005e-06,0.02409,0.00045,-4e-05,3e-05,1.3861054334626986e-05,1.3303000000000002e-06,0.01023,7.000000000000001e-05,-5e-05,2e-05,1.3747537986608628e-05,1.3086000000000005e-06,0.009219999999999999,7.000000000000001e-05
31,2,-0.00128,0.00124,0.00039762039044218494,0.0009446592999999999,0.32113,0.00252,-0.00046,0.00042,0.0001206234155054525,8.69363e-05,0.09473000000000001,0.00088,-0.00055,0.00036,0.00011386184096725199,7.7463e-05,0.09139,0.00091,-0.00091,0.0012,0.000285455988444648,0.00048687359999999996,0.22929,0.00211,-0.00069,0.00061,0.000196450681579086,0.00023059239999999998,0.15302,0.0013,-0.00088,0.00106,0.0002738534256582693,0.00044809930000000003,0.20684999999999998,0.0019399999999999999,-0.0008,0.00108,0.00023897598835981675,0.0003412294,0.18689,0.0018800000000000002,-0.00128,0.00127,0.000462988238281072,0.0012807896999999999,0.36582000000000003,0.00255
31,3,-0.00128,0.00127,0.0005850401303939526,0.0021210593000000003,0.49432,0.00255,-0.00069,0.00058,0.0001824969798437476,0.00020639199999999998,0.14817,0.0012699999999999999,-0.00024,0.00026,7.501051510388168e-05,3.48679e-05,0.06236000000000001,0.0005,-0.00067,0.00057,0.00017432004420560684,0.0001883112,0.14931,0.00124,-0.00101,0.00113,0.0003954586889080657,0.0009691337999999999,0.33070999999999995,0.00214,-0.00064,0.00075,0.00021506415313316292,0.0002866273,0.17408,0.0013900000000000002,-0.00111,0.00107,0.00026828834268991084,0.00044605160000000003,0.20881999999999998,0.00218,-0.00099,0.00115,0.0003249595250426208,0.0006543951,0.27944,0.00214
31,4,-0.0007,0.00051,0.00010052676791761068,6.24528e-05,0.07094,0.0012100000000000001,-0.0004,0.00042,0.00011679768417706786,8.430570000000001e-05,0.09402,0.00082,-0.00053,0.00056,0.0001608511442759639,0.0001598957,0.12542,0.0010899999999999998,-0.00128,0.00127,0.0005180197388499687,0.0016583687000000001,0.40366,0.00255,-0.00128,0.00127,0.0005981398349348746,0.0022110264,0.46182,0.00255,-0.00116,0.00109,0.00032224076407611873,0.0006417257,0.24230000000000002,0.0022500000000000003,-0.00066,0.00072,0.00019878917456021307,0.00024421590000000003,0.15518,0.0013800000000000002,-0.00091,0.00085,0.0002480670908310821,0.0003803004,0.1902,0.0017599999999999998
31,5,-0.0006,0.00087,0.0001681312447499922,0.00017040019999999998,0.14222,0.00147,-0.00054,0.00058,0.0001619812428211338,0.0001581622,0.1421,0.00112,-0.00077,0.00091,0.00021049141478945513,0.00026708039999999997,0.18087999999999999,0.00168,-0.00128,0.00127,0.0005252698298594633,0.0016631758,0.45508,0.00255,-0.00128,0.00127,0.00045139476394069383,0.0012282486000000001,0.40679,0.00255,-0.00081,0.00105,0.0001959860137474238,0.00023153859999999998,0.17001,0.0018599999999999999,-0.00026,0.00032,8.163821170964003e-05,4.01754e-05,0.07213,0.00058,-0.00018,0.00023,6.046875066978642e-05,2.20412e-05,0.05262000000000001,0.00041
31,6,-0.00128,0.00127,0.000489910510914959,0.0014585548,0.36754,0.00255,-0.00065,0.00058,0.0001372239401185112,0.0001144324,0.10595,0.00123,-0.00022,0.00022,6.918981530099386e-05,2.9092e-05,0.05509,0.00044,-0.00082,0.00071,0.00017175439487044958,0.0001792689,0.13741000000000003,0.0015300000000000001,-0.00112,0.00127,0.00041413851852083037,0.0010422705999999999,0.32142,0.0023899999999999998,-0.00106,0.00077,0.0002992762373623941,0.0005442942,0.22204000000000002,0.00183,-0.00084,0.00096,0.0002534116724386509,0.0003902496,0.19045,0.0018,-0.00118,0.00109,0.0003799198793097725,0.0008771488,0.27335,0.0022700000000000003
